low,high,open,close,volume,year,month,day,weekday,days
13835.0,13835.0,13835.0,13800.0,1200,2017,2,16,4,17213
12352.0,12352.0,12352.0,12400.0,800,2017,2,17,5,17214
12352.0,12352.0,12352.0,12400.0,1000,2017,2,20,1,17217
12352.0,12352.0,12352.0,12400.0,0,2017,2,21,2,17218
12352.0,12352.0,12352.0,12400.0,0,2017,2,22,3,17219
12352.0,12352.0,12352.0,12400.0,0,2017,2,23,4,17220
11426.0,11426.0,11426.0,11400.0,100,2017,2,24,5,17221
11426.0,11426.0,11426.0,11400.0,0,2017,2,27,1,17224
11426.0,11426.0,11426.0,11400.0,0,2017,2,28,2,17225
11426.0,11426.0,11426.0,11400.0,0,2017,3,1,3,17226
11426.0,11426.0,11426.0,11400.0,0,2017,3,2,4,17227
11426.0,11426.0,11426.0,11400.0,0,2017,3,3,5,17228
9758.0,9758.0,9758.0,9800.0,100,2017,3,6,1,17231
9758.0,9758.0,9758.0,9800.0,0,2017,3,7,2,17232
9758.0,9758.0,9758.0,9800.0,0,2017,3,8,3,17233
9758.0,9758.0,9758.0,9800.0,0,2017,3,9,4,17234
9758.0,9758.0,9758.0,9800.0,0,2017,3,10,5,17235
9758.0,9758.0,9758.0,9800.0,0,2017,3,13,1,17238
9758.0,9758.0,9758.0,9800.0,0,2017,3,14,2,17239
9758.0,9758.0,9758.0,9800.0,0,2017,3,15,3,17240
9758.0,9758.0,9758.0,9800.0,0,2017,3,16,4,17241
9758.0,9758.0,9758.0,9800.0,0,2017,3,17,5,17242
9758.0,9758.0,9758.0,9800.0,0,2017,3,20,1,17245
9758.0,9758.0,9758.0,9800.0,0,2017,3,21,2,17246
9758.0,9758.0,9758.0,9800.0,0,2017,3,22,3,17247
9758.0,9758.0,9758.0,9800.0,0,2017,3,23,4,17248
9758.0,9758.0,9758.0,9800.0,0,2017,3,24,5,17249
9758.0,9758.0,9758.0,9800.0,0,2017,3,27,1,17252
9758.0,9758.0,9758.0,9800.0,0,2017,3,28,2,17253
9758.0,9758.0,9758.0,9800.0,0,2017,3,29,3,17254
9758.0,9758.0,9758.0,9800.0,0,2017,3,30,4,17255
9758.0,9758.0,9758.0,9800.0,0,2017,3,31,5,17256
9758.0,9758.0,9758.0,9800.0,0,2017,4,3,1,17259
9758.0,9758.0,9758.0,9800.0,0,2017,4,4,2,17260
9758.0,9758.0,9758.0,9800.0,0,2017,4,5,3,17261
9758.0,9758.0,9758.0,9800.0,0,2017,4,7,5,17263
9758.0,9758.0,9758.0,9800.0,0,2017,4,10,1,17266
9758.0,9758.0,9758.0,9800.0,0,2017,4,11,2,17267
9758.0,9758.0,9758.0,9800.0,0,2017,4,12,3,17268
9758.0,9758.0,9758.0,9800.0,0,2017,4,13,4,17269
9758.0,9758.0,9758.0,9800.0,0,2017,4,14,5,17270
9758.0,9758.0,9758.0,9800.0,0,2017,4,17,1,17273
9758.0,9758.0,9758.0,9800.0,0,2017,4,18,2,17274
9758.0,9758.0,9758.0,9800.0,0,2017,4,19,3,17275
9758.0,9758.0,9758.0,9800.0,0,2017,4,20,4,17276
9758.0,9758.0,9758.0,9800.0,0,2017,4,21,5,17277
9758.0,9758.0,9758.0,9800.0,0,2017,4,24,1,17280
9758.0,9758.0,9758.0,9800.0,0,2017,4,25,2,17281
9758.0,9758.0,9758.0,9800.0,0,2017,4,26,3,17282
9758.0,9758.0,9758.0,9800.0,0,2017,4,27,4,17283
9758.0,9758.0,9758.0,9800.0,0,2017,4,28,5,17284
9758.0,9758.0,9758.0,9800.0,0,2017,5,3,3,17289
9758.0,9758.0,9758.0,9800.0,0,2017,5,4,4,17290
9758.0,9758.0,9758.0,9800.0,0,2017,5,5,5,17291
9758.0,9758.0,9758.0,9800.0,0,2017,5,8,1,17294
9758.0,9758.0,9758.0,9800.0,0,2017,5,9,2,17295
9758.0,9758.0,9758.0,9800.0,0,2017,5,10,3,17296
9758.0,9758.0,9758.0,9800.0,0,2017,5,11,4,17297
9758.0,9758.0,9758.0,9800.0,0,2017,5,12,5,17298
9758.0,9758.0,9758.0,9800.0,0,2017,5,15,1,17301
9758.0,9758.0,9758.0,9800.0,0,2017,5,16,2,17302
9758.0,9758.0,9758.0,9800.0,0,2017,5,17,3,17303
9758.0,9758.0,9758.0,9800.0,0,2017,5,18,4,17304
9758.0,9758.0,9758.0,9800.0,0,2017,5,19,5,17305
9758.0,9758.0,9758.0,9800.0,0,2017,5,22,1,17308
9758.0,9758.0,9758.0,9800.0,0,2017,5,23,2,17309
9758.0,9758.0,9758.0,9800.0,0,2017,5,24,3,17310
9758.0,9758.0,9758.0,9800.0,0,2017,5,25,4,17311
9758.0,9758.0,9758.0,9800.0,0,2017,5,26,5,17312
10561.0,10561.0,10561.0,10600.0,3000,2017,5,29,1,17315
10561.0,10561.0,10561.0,10600.0,0,2017,5,30,2,17316
10561.0,10561.0,10561.0,10600.0,0,2017,5,31,3,17317
10561.0,10561.0,10561.0,10600.0,0,2017,6,1,4,17318
10561.0,10561.0,10561.0,10600.0,0,2017,6,2,5,17319
10561.0,10561.0,10561.0,10600.0,0,2017,6,5,1,17322
10561.0,10561.0,10561.0,10600.0,0,2017,6,6,2,17323
10561.0,10561.0,10561.0,10600.0,0,2017,6,7,3,17324
10561.0,10561.0,10561.0,10600.0,0,2017,6,8,4,17325
10561.0,10561.0,10561.0,10600.0,0,2017,6,9,5,17326
10561.0,10561.0,10561.0,10600.0,0,2017,6,12,1,17329
10561.0,10561.0,10561.0,10600.0,0,2017,6,13,2,17330
10561.0,10561.0,10561.0,10600.0,0,2017,6,14,3,17331
10561.0,10561.0,10561.0,10600.0,0,2017,6,15,4,17332
10561.0,10561.0,10561.0,10600.0,0,2017,6,16,5,17333
10561.0,10561.0,10561.0,10600.0,0,2017,6,19,1,17336
10561.0,10561.0,10561.0,10600.0,0,2017,6,20,2,17337
10561.0,10561.0,10561.0,10600.0,0,2017,6,21,3,17338
10561.0,10561.0,10561.0,10600.0,0,2017,6,22,4,17339
10561.0,10561.0,10561.0,10600.0,0,2017,6,23,5,17340
10561.0,10561.0,10561.0,10600.0,0,2017,6,26,1,17343
10561.0,10561.0,10561.0,10600.0,0,2017,6,27,2,17344
10561.0,10561.0,10561.0,10600.0,0,2017,6,28,3,17345
10561.0,10561.0,10561.0,10600.0,0,2017,6,29,4,17346
10561.0,10561.0,10561.0,10600.0,0,2017,6,30,5,17347
10561.0,10561.0,10561.0,10600.0,0,2017,7,3,1,17350
10561.0,10561.0,10561.0,10600.0,0,2017,7,4,2,17351
10561.0,10561.0,10561.0,10600.0,0,2017,7,5,3,17352
10561.0,10561.0,10561.0,10600.0,0,2017,7,6,4,17353
10561.0,10561.0,10561.0,10600.0,0,2017,7,7,5,17354
10561.0,10561.0,10561.0,10600.0,0,2017,7,10,1,17357
10561.0,10561.0,10561.0,10600.0,0,2017,7,11,2,17358
10561.0,10561.0,10561.0,10600.0,0,2017,7,12,3,17359
10561.0,10561.0,10561.0,10600.0,0,2017,7,13,4,17360
10561.0,10561.0,10561.0,10600.0,0,2017,7,14,5,17361
10561.0,10561.0,10561.0,10600.0,0,2017,7,17,1,17364
10561.0,10561.0,10561.0,10600.0,0,2017,7,18,2,17365
10561.0,10561.0,10561.0,10600.0,0,2017,7,19,3,17366
10561.0,10561.0,10561.0,10600.0,0,2017,7,20,4,17367
10561.0,10561.0,10561.0,10600.0,0,2017,7,21,5,17368
10561.0,10561.0,10561.0,10600.0,0,2017,7,24,1,17371
10561.0,10561.0,10561.0,10600.0,0,2017,7,25,2,17372
10561.0,10561.0,10561.0,10600.0,0,2017,7,26,3,17373
10561.0,10561.0,10561.0,10600.0,0,2017,7,27,4,17374
10561.0,10561.0,10561.0,10600.0,0,2017,7,28,5,17375
10561.0,10561.0,10561.0,10600.0,0,2017,7,31,1,17378
10561.0,10561.0,10561.0,10600.0,0,2017,8,1,2,17379
10561.0,10561.0,10561.0,10600.0,0,2017,8,2,3,17380
10561.0,10561.0,10561.0,10600.0,0,2017,8,3,4,17381
10561.0,10561.0,10561.0,10600.0,0,2017,8,4,5,17382
10561.0,10561.0,10561.0,10600.0,0,2017,8,7,1,17385
10561.0,10561.0,10561.0,10600.0,0,2017,8,8,2,17386
10561.0,10561.0,10561.0,10600.0,0,2017,8,9,3,17387
10561.0,10561.0,10561.0,10600.0,0,2017,8,10,4,17388
10561.0,10561.0,10561.0,10600.0,0,2017,8,11,5,17389
10561.0,10561.0,10561.0,10600.0,0,2017,8,14,1,17392
10561.0,10561.0,10561.0,10600.0,0,2017,8,15,2,17393
10561.0,10561.0,10561.0,10600.0,0,2017,8,16,3,17394
10561.0,10561.0,10561.0,10600.0,0,2017,8,17,4,17395
10561.0,10561.0,10561.0,10600.0,0,2017,8,18,5,17396
10561.0,10561.0,10561.0,10600.0,0,2017,8,21,1,17399
10561.0,10561.0,10561.0,10600.0,0,2017,8,22,2,17400
10561.0,10561.0,10561.0,10600.0,0,2017,8,23,3,17401
10561.0,10561.0,10561.0,10600.0,0,2017,8,24,4,17402
10561.0,10561.0,10561.0,10600.0,0,2017,8,25,5,17403
10561.0,10561.0,10561.0,10600.0,0,2017,8,28,1,17406
10561.0,10561.0,10561.0,10600.0,0,2017,8,29,2,17407
10561.0,10561.0,10561.0,10600.0,0,2017,8,30,3,17408
10561.0,10561.0,10561.0,10600.0,0,2017,8,31,4,17409
10561.0,10561.0,10561.0,10600.0,0,2017,9,1,5,17410
10561.0,10561.0,10561.0,10600.0,0,2017,9,5,2,17414
10561.0,10561.0,10561.0,10600.0,0,2017,9,6,3,17415
10561.0,10561.0,10561.0,10600.0,0,2017,9,7,4,17416
10561.0,10561.0,10561.0,10600.0,0,2017,9,8,5,17417
10561.0,10561.0,10561.0,10600.0,0,2017,9,11,1,17420
10561.0,10561.0,10561.0,10600.0,0,2017,9,12,2,17421
10561.0,10561.0,10561.0,10600.0,0,2017,9,13,3,17422
10561.0,10561.0,10561.0,10600.0,0,2017,9,14,4,17423
10561.0,10561.0,10561.0,10600.0,0,2017,9,15,5,17424
10561.0,10561.0,10561.0,10600.0,0,2017,9,18,1,17427
10561.0,10561.0,10561.0,10600.0,0,2017,9,19,2,17428
10561.0,10561.0,10561.0,10600.0,0,2017,9,20,3,17429
10561.0,10561.0,10561.0,10600.0,0,2017,9,21,4,17430
10561.0,10561.0,10561.0,10600.0,0,2017,9,22,5,17431
10561.0,10561.0,10561.0,10600.0,0,2017,9,25,1,17434
10561.0,10561.0,10561.0,10600.0,0,2017,9,26,2,17435
10561.0,10561.0,10561.0,10600.0,0,2017,9,27,3,17436
10561.0,10561.0,10561.0,10600.0,0,2017,9,28,4,17437
10561.0,10561.0,10561.0,10600.0,0,2017,9,29,5,17438
10561.0,10561.0,10561.0,10600.0,0,2017,10,2,1,17441
10561.0,10561.0,10561.0,10600.0,0,2017,10,3,2,17442
10561.0,10561.0,10561.0,10600.0,0,2017,10,4,3,17443
10561.0,10561.0,10561.0,10600.0,0,2017,10,5,4,17444
10561.0,10561.0,10561.0,10600.0,0,2017,10,6,5,17445
10561.0,10561.0,10561.0,10600.0,0,2017,10,9,1,17448
10561.0,10561.0,10561.0,10600.0,0,2017,10,10,2,17449
10561.0,10561.0,10561.0,10600.0,0,2017,10,11,3,17450
10561.0,10561.0,10561.0,10600.0,0,2017,10,12,4,17451
10561.0,10561.0,10561.0,10600.0,0,2017,10,13,5,17452
10561.0,10561.0,10561.0,10600.0,0,2017,10,16,1,17455
10561.0,10561.0,10561.0,10600.0,0,2017,10,17,2,17456
10561.0,10561.0,10561.0,10600.0,0,2017,10,18,3,17457
10561.0,10561.0,10561.0,10600.0,0,2017,10,19,4,17458
10561.0,10561.0,10561.0,10600.0,0,2017,10,20,5,17459
10561.0,10561.0,10561.0,10600.0,0,2017,10,23,1,17462
10561.0,10561.0,10561.0,10600.0,0,2017,10,24,2,17463
10561.0,10561.0,10561.0,10600.0,0,2017,10,25,3,17464
10561.0,10561.0,10561.0,10600.0,0,2017,10,26,4,17465
10561.0,10561.0,10561.0,10600.0,0,2017,10,27,5,17466
10561.0,10561.0,10561.0,10600.0,0,2017,10,30,1,17469
10561.0,10561.0,10561.0,10600.0,0,2017,10,31,2,17470
10561.0,10561.0,10561.0,10600.0,0,2017,11,1,3,17471
10561.0,10561.0,10561.0,10600.0,0,2017,11,2,4,17472
10561.0,10561.0,10561.0,10600.0,0,2017,11,3,5,17473
10561.0,10561.0,10561.0,10600.0,0,2017,11,6,1,17476
10561.0,10561.0,10561.0,10600.0,0,2017,11,7,2,17477
10561.0,10561.0,10561.0,10600.0,0,2017,11,8,3,17478
10561.0,10561.0,10561.0,10600.0,0,2017,11,9,4,17479
10561.0,10561.0,10561.0,10600.0,0,2017,11,10,5,17480
10561.0,10561.0,10561.0,10600.0,0,2017,11,13,1,17483
10561.0,10561.0,10561.0,10600.0,0,2017,11,14,2,17484
10561.0,10561.0,10561.0,10600.0,0,2017,11,15,3,17485
10561.0,10561.0,10561.0,10600.0,0,2017,11,16,4,17486
10561.0,10561.0,10561.0,10600.0,0,2017,11,17,5,17487
10561.0,10561.0,10561.0,10600.0,0,2017,11,20,1,17490
10561.0,10561.0,10561.0,10600.0,0,2017,11,21,2,17491
10561.0,10561.0,10561.0,10600.0,0,2017,11,22,3,17492
10561.0,10561.0,10561.0,10600.0,0,2017,11,23,4,17493
10561.0,10561.0,10561.0,10600.0,0,2017,11,24,5,17494
10561.0,10561.0,10561.0,10600.0,0,2017,11,27,1,17497
10561.0,10561.0,10561.0,10600.0,0,2017,11,28,2,17498
10561.0,10561.0,10561.0,10600.0,0,2017,11,29,3,17499
10561.0,10561.0,10561.0,10600.0,0,2017,11,30,4,17500
10561.0,10561.0,10561.0,10600.0,0,2017,12,1,5,17501
10561.0,10561.0,10561.0,10600.0,0,2017,12,4,1,17504
10561.0,10561.0,10561.0,10600.0,0,2017,12,5,2,17505
10561.0,10561.0,10561.0,10600.0,0,2017,12,6,3,17506
10561.0,10561.0,10561.0,10600.0,0,2017,12,7,4,17507
10561.0,10561.0,10561.0,10600.0,0,2017,12,8,5,17508
10561.0,10561.0,10561.0,10600.0,0,2017,12,11,1,17511
10561.0,10561.0,10561.0,10600.0,0,2017,12,12,2,17512
10561.0,10561.0,10561.0,10600.0,0,2017,12,13,3,17513
10561.0,10561.0,10561.0,10600.0,0,2017,12,14,4,17514
10561.0,10561.0,10561.0,10600.0,0,2017,12,15,5,17515
10561.0,10561.0,10561.0,10600.0,0,2017,12,18,1,17518
10561.0,10561.0,10561.0,10600.0,0,2017,12,19,2,17519
10561.0,10561.0,10561.0,10600.0,0,2017,12,20,3,17520
10561.0,10561.0,10561.0,10600.0,0,2017,12,21,4,17521
10561.0,10561.0,10561.0,10600.0,0,2017,12,22,5,17522
10561.0,10561.0,10561.0,10600.0,0,2017,12,25,1,17525
10561.0,10561.0,10561.0,10600.0,0,2017,12,26,2,17526
10561.0,10561.0,10561.0,10600.0,0,2017,12,27,3,17527
10561.0,10561.0,10561.0,10600.0,0,2017,12,28,4,17528
10561.0,10561.0,10561.0,10600.0,0,2017,12,29,5,17529
10561.0,10561.0,10561.0,10600.0,0,2018,1,2,2,17533
10561.0,10561.0,10561.0,10600.0,0,2018,1,3,3,17534
10561.0,10561.0,10561.0,10600.0,0,2018,1,4,4,17535
10561.0,10561.0,10561.0,10600.0,0,2018,1,5,5,17536
10561.0,10561.0,10561.0,10600.0,0,2018,1,8,1,17539
10561.0,10561.0,10561.0,10600.0,0,2018,1,9,2,17540
10561.0,10561.0,10561.0,10600.0,0,2018,1,10,3,17541
10561.0,10561.0,10561.0,10600.0,0,2018,1,11,4,17542
10561.0,10561.0,10561.0,10600.0,0,2018,1,12,5,17543
10561.0,10561.0,10561.0,10600.0,0,2018,1,15,1,17546
10561.0,10561.0,10561.0,10600.0,0,2018,1,16,2,17547
10561.0,10561.0,10561.0,10600.0,0,2018,1,17,3,17548
10561.0,10561.0,10561.0,10600.0,0,2018,1,18,4,17549
10561.0,10561.0,10561.0,10600.0,0,2018,1,19,5,17550
10561.0,10561.0,10561.0,10600.0,0,2018,1,22,1,17553
10561.0,10561.0,10561.0,10600.0,0,2018,1,23,2,17554
10561.0,10561.0,10561.0,10600.0,0,2018,1,24,3,17555
10561.0,10561.0,10561.0,10600.0,0,2018,1,25,4,17556
10561.0,10561.0,10561.0,10600.0,0,2018,1,26,5,17557
10561.0,10561.0,10561.0,10600.0,0,2018,1,29,1,17560
10561.0,10561.0,10561.0,10600.0,0,2018,1,30,2,17561
10561.0,10561.0,10561.0,10600.0,0,2018,1,31,3,17562
10561.0,10561.0,10561.0,10600.0,0,2018,2,1,4,17563
10561.0,10561.0,10561.0,10600.0,0,2018,2,2,5,17564
10561.0,10561.0,10561.0,10600.0,0,2018,2,5,1,17567
10561.0,10561.0,10561.0,10600.0,0,2018,2,6,2,17568
10561.0,10561.0,10561.0,10600.0,0,2018,2,7,3,17569
10561.0,10561.0,10561.0,10600.0,0,2018,2,8,4,17570
10561.0,10561.0,10561.0,10600.0,0,2018,2,9,5,17571
10561.0,10561.0,10561.0,10600.0,0,2018,2,12,1,17574
10561.0,10561.0,10561.0,10600.0,0,2018,2,13,2,17575
10561.0,10561.0,10561.0,10600.0,0,2018,2,21,3,17583
10561.0,10561.0,10561.0,10600.0,0,2018,2,22,4,17584
10561.0,10561.0,10561.0,10600.0,0,2018,2,23,5,17585
10561.0,10561.0,10561.0,10600.0,0,2018,2,26,1,17588
10561.0,10561.0,10561.0,10600.0,0,2018,2,27,2,17589
10561.0,10561.0,10561.0,10600.0,0,2018,2,28,3,17590
10561.0,10561.0,10561.0,10600.0,0,2018,3,1,4,17591
10561.0,10561.0,10561.0,10600.0,0,2018,3,2,5,17592
11462.0,11462.0,11462.0,11500.0,1000,2018,3,5,1,17595
11462.0,11462.0,11462.0,11500.0,0,2018,3,6,2,17596
11462.0,11462.0,11462.0,11500.0,0,2018,3,7,3,17597
11462.0,11462.0,11462.0,11500.0,0,2018,3,8,4,17598
11462.0,11462.0,11462.0,11500.0,0,2018,3,9,5,17599
11462.0,11462.0,11462.0,11500.0,0,2018,3,12,1,17602
11462.0,11462.0,11462.0,11500.0,0,2018,3,13,2,17603
11462.0,11462.0,11462.0,11500.0,0,2018,3,14,3,17604
11462.0,11462.0,11462.0,11500.0,0,2018,3,15,4,17605
11462.0,11462.0,11462.0,11500.0,0,2018,3,16,5,17606
11462.0,11462.0,11462.0,11500.0,0,2018,3,19,1,17609
11462.0,11462.0,11462.0,11500.0,0,2018,3,20,2,17610
11462.0,11462.0,11462.0,11500.0,0,2018,3,21,3,17611
11462.0,11462.0,11462.0,11500.0,0,2018,3,22,4,17612
11462.0,11462.0,11462.0,11500.0,0,2018,3,23,5,17613
11462.0,11462.0,11462.0,11500.0,0,2018,3,26,1,17616
11462.0,11462.0,11462.0,11500.0,0,2018,3,27,2,17617
11462.0,11462.0,11462.0,11500.0,0,2018,3,28,3,17618
11462.0,11462.0,11462.0,11500.0,0,2018,3,29,4,17619
11462.0,11462.0,11462.0,11500.0,0,2018,3,30,5,17620
11462.0,11462.0,11462.0,11500.0,0,2018,4,2,1,17623
11462.0,11462.0,11462.0,11500.0,0,2018,4,3,2,17624
11462.0,11462.0,11462.0,11500.0,0,2018,4,4,3,17625
11462.0,11462.0,11462.0,11500.0,0,2018,4,5,4,17626
11462.0,11462.0,11462.0,11500.0,0,2018,4,6,5,17627
11462.0,11462.0,11462.0,11500.0,0,2018,4,9,1,17630
11462.0,11462.0,11462.0,11500.0,0,2018,4,10,2,17631
11462.0,11462.0,11462.0,11500.0,0,2018,4,11,3,17632
11462.0,11462.0,11462.0,11500.0,0,2018,4,12,4,17633
11462.0,11462.0,11462.0,11500.0,0,2018,4,13,5,17634
11462.0,11462.0,11462.0,11500.0,0,2018,4,16,1,17637
11462.0,11462.0,11462.0,11500.0,0,2018,4,17,2,17638
11462.0,11462.0,11462.0,11500.0,0,2018,4,18,3,17639
11462.0,11462.0,11462.0,11500.0,0,2018,4,19,4,17640
11462.0,11462.0,11462.0,11500.0,0,2018,4,20,5,17641
11462.0,11462.0,11462.0,11500.0,0,2018,4,23,1,17644
11462.0,11462.0,11462.0,11500.0,0,2018,4,24,2,17645
11462.0,11462.0,11462.0,11500.0,0,2018,4,26,4,17647
11462.0,11462.0,11462.0,11500.0,0,2018,4,27,5,17648
11462.0,11462.0,11462.0,11500.0,0,2018,5,2,3,17653
11462.0,11462.0,11462.0,11500.0,0,2018,5,3,4,17654
11462.0,11462.0,11462.0,11500.0,0,2018,5,4,5,17655
11462.0,11462.0,11462.0,11500.0,0,2018,5,7,1,17658
11462.0,11462.0,11462.0,11500.0,0,2018,5,8,2,17659
11462.0,11462.0,11462.0,11500.0,0,2018,5,9,3,17660
11462.0,11462.0,11462.0,11500.0,0,2018,5,10,4,17661
11462.0,11462.0,11462.0,11500.0,0,2018,5,11,5,17662
11462.0,11462.0,11462.0,11500.0,0,2018,5,14,1,17665
11462.0,11462.0,11462.0,11500.0,0,2018,5,15,2,17666
11462.0,11462.0,11462.0,11500.0,0,2018,5,16,3,17667
11462.0,11462.0,11462.0,11500.0,0,2018,5,17,4,17668
11462.0,11462.0,11462.0,11500.0,0,2018,5,18,5,17669
11462.0,11462.0,11462.0,11500.0,0,2018,5,21,1,17672
11462.0,11462.0,11462.0,11500.0,0,2018,5,22,2,17673
11462.0,11462.0,11462.0,11500.0,0,2018,5,23,3,17674
11462.0,11462.0,11462.0,11500.0,0,2018,5,24,4,17675
11462.0,11462.0,11462.0,11500.0,0,2018,5,25,5,17676
11462.0,11462.0,11462.0,11500.0,0,2018,5,28,1,17679
11462.0,11462.0,11462.0,11500.0,0,2018,5,29,2,17680
11462.0,11462.0,11462.0,11500.0,0,2018,5,30,3,17681
11462.0,11462.0,11462.0,11500.0,0,2018,5,31,4,17682
11462.0,11462.0,11462.0,11500.0,0,2018,6,1,5,17683
11462.0,11462.0,11462.0,11500.0,0,2018,6,4,1,17686
11462.0,11462.0,11462.0,11500.0,0,2018,6,5,2,17687
11462.0,11462.0,11462.0,11500.0,0,2018,6,6,3,17688
11462.0,11462.0,11462.0,11500.0,0,2018,6,7,4,17689
11462.0,11462.0,11462.0,11500.0,0,2018,6,8,5,17690
11462.0,11462.0,11462.0,11500.0,0,2018,6,11,1,17693
11462.0,11462.0,11462.0,11500.0,0,2018,6,12,2,17694
11462.0,11462.0,11462.0,11500.0,0,2018,6,13,3,17695
11462.0,11462.0,11462.0,11500.0,0,2018,6,14,4,17696
11462.0,11462.0,11462.0,11500.0,0,2018,6,15,5,17697
11462.0,11462.0,11462.0,11500.0,0,2018,6,18,1,17700
11462.0,11462.0,11462.0,11500.0,0,2018,6,19,2,17701
11462.0,11462.0,11462.0,11500.0,0,2018,6,20,3,17702
11462.0,11462.0,11462.0,11500.0,0,2018,6,21,4,17703
11462.0,11462.0,11462.0,11500.0,0,2018,6,22,5,17704
11462.0,11462.0,11462.0,11500.0,0,2018,6,25,1,17707
11462.0,11462.0,11462.0,11500.0,0,2018,6,26,2,17708
11462.0,11462.0,11462.0,11500.0,0,2018,6,27,3,17709
11462.0,11462.0,11462.0,11500.0,0,2018,6,28,4,17710
11462.0,11462.0,11462.0,11500.0,0,2018,6,29,5,17711
11462.0,11462.0,11462.0,11500.0,0,2018,7,2,1,17714
11462.0,11462.0,11462.0,11500.0,0,2018,7,3,2,17715
11462.0,11462.0,11462.0,11500.0,0,2018,7,4,3,17716
11462.0,11462.0,11462.0,11500.0,0,2018,7,5,4,17717
11462.0,11462.0,11462.0,11500.0,0,2018,7,6,5,17718
11462.0,11462.0,11462.0,11500.0,0,2018,7,9,1,17721
11462.0,11462.0,11462.0,11500.0,0,2018,7,10,2,17722
11462.0,11462.0,11462.0,11500.0,0,2018,7,11,3,17723
11462.0,11462.0,11462.0,11500.0,0,2018,7,12,4,17724
11462.0,11462.0,11462.0,11500.0,0,2018,7,13,5,17725
11462.0,11462.0,11462.0,11500.0,0,2018,7,16,1,17728
11462.0,11462.0,11462.0,11500.0,0,2018,7,17,2,17729
11462.0,11462.0,11462.0,11500.0,0,2018,7,18,3,17730
11462.0,11462.0,11462.0,11500.0,0,2018,7,19,4,17731
11462.0,11462.0,11462.0,11500.0,0,2018,7,20,5,17732
10496.0,10496.0,11463.0,11500.0,0,2018,7,23,1,17735
11463.0,11463.0,11463.0,11500.0,0,2018,7,24,2,17736
11463.0,11463.0,11463.0,11500.0,0,2018,7,25,3,17737
11463.0,11463.0,11463.0,11500.0,0,2018,7,26,4,17738
11463.0,11463.0,11463.0,11500.0,0,2018,7,27,5,17739
11463.0,11463.0,11463.0,11500.0,0,2018,7,30,1,17742
11463.0,11463.0,11463.0,11500.0,0,2018,7,31,2,17743
11463.0,11463.0,11463.0,11500.0,0,2018,8,1,3,17744
11463.0,11463.0,11463.0,11500.0,0,2018,8,2,4,17745
11463.0,11463.0,11463.0,11500.0,0,2018,8,3,5,17746
11463.0,11463.0,11463.0,11500.0,0,2018,8,6,1,17749
11463.0,11463.0,11463.0,11500.0,0,2018,8,7,2,17750
11463.0,11463.0,11463.0,11500.0,0,2018,8,8,3,17751
11463.0,11463.0,11463.0,11500.0,0,2018,8,9,4,17752
11463.0,11463.0,11463.0,11500.0,0,2018,8,10,5,17753
11463.0,11463.0,11463.0,11500.0,0,2018,8,13,1,17756
11463.0,11463.0,11463.0,11500.0,0,2018,8,14,2,17757
11463.0,11463.0,11463.0,11500.0,0,2018,8,15,3,17758
11463.0,11463.0,11463.0,11500.0,0,2018,8,16,4,17759
11463.0,11463.0,11463.0,11500.0,0,2018,8,17,5,17760
11463.0,11463.0,11463.0,11500.0,0,2018,8,20,1,17763
11463.0,11463.0,11463.0,11500.0,0,2018,8,21,2,17764
11463.0,11463.0,11463.0,11500.0,0,2018,8,22,3,17765
11463.0,11463.0,11463.0,11500.0,0,2018,8,23,4,17766
11463.0,11463.0,11463.0,11500.0,0,2018,8,24,5,17767
11463.0,11463.0,11463.0,11500.0,0,2018,8,27,1,17770
11463.0,11463.0,11463.0,11500.0,0,2018,8,28,2,17771
11463.0,11463.0,11463.0,11500.0,0,2018,8,29,3,17772
11463.0,11463.0,11463.0,11500.0,0,2018,8,30,4,17773
11463.0,11463.0,11463.0,11500.0,0,2018,8,31,5,17774
11463.0,11463.0,11463.0,11500.0,0,2018,9,4,2,17778
11463.0,11463.0,11463.0,11500.0,0,2018,9,5,3,17779
11463.0,11463.0,11463.0,11500.0,0,2018,9,6,4,17780
11463.0,11463.0,11463.0,11500.0,0,2018,9,7,5,17781
11463.0,11463.0,11463.0,11500.0,0,2018,9,10,1,17784
11463.0,11463.0,11463.0,11500.0,0,2018,9,11,2,17785
11463.0,11463.0,11463.0,11500.0,0,2018,9,12,3,17786
11463.0,11463.0,11463.0,11500.0,0,2018,9,13,4,17787
11463.0,11463.0,11463.0,11500.0,0,2018,9,14,5,17788
11463.0,11463.0,11463.0,11500.0,0,2018,9,17,1,17791
11463.0,11463.0,11463.0,11500.0,0,2018,9,18,2,17792
11463.0,11463.0,11463.0,11500.0,0,2018,9,19,3,17793
11463.0,11463.0,11463.0,11500.0,0,2018,9,20,4,17794
11463.0,11463.0,11463.0,11500.0,0,2018,9,21,5,17795
11463.0,11463.0,11463.0,11500.0,0,2018,9,24,1,17798
11463.0,11463.0,11463.0,11500.0,0,2018,9,25,2,17799
11463.0,11463.0,11463.0,11500.0,0,2018,9,26,3,17800
11463.0,11463.0,11463.0,11500.0,0,2018,9,27,4,17801
11463.0,11463.0,11463.0,11500.0,0,2018,9,28,5,17802
11463.0,11463.0,11463.0,11500.0,0,2018,10,1,1,17805
11463.0,11463.0,11463.0,11500.0,0,2018,10,2,2,17806
11463.0,11463.0,11463.0,11500.0,0,2018,10,3,3,17807
11463.0,11463.0,11463.0,11500.0,0,2018,10,4,4,17808
11463.0,11463.0,11463.0,11500.0,0,2018,10,5,5,17809
11463.0,11463.0,11463.0,11500.0,0,2018,10,8,1,17812
11463.0,11463.0,11463.0,11500.0,0,2018,10,9,2,17813
11463.0,11463.0,11463.0,11500.0,0,2018,10,10,3,17814
11463.0,11463.0,11463.0,11500.0,0,2018,10,11,4,17815
11463.0,11463.0,11463.0,11500.0,0,2018,10,12,5,17816
11463.0,11463.0,11463.0,11500.0,0,2018,10,15,1,17819
11463.0,11463.0,11463.0,11500.0,0,2018,10,16,2,17820
11463.0,11463.0,11463.0,11500.0,0,2018,10,17,3,17821
11463.0,11463.0,11463.0,11500.0,0,2018,10,18,4,17822
11463.0,11463.0,11463.0,11500.0,0,2018,10,19,5,17823
11463.0,11463.0,11463.0,11500.0,0,2018,10,22,1,17826
11463.0,11463.0,11463.0,11500.0,0,2018,10,23,2,17827
11463.0,11463.0,11463.0,11500.0,0,2018,10,24,3,17828
11463.0,11463.0,11463.0,11500.0,0,2018,10,25,4,17829
11463.0,11463.0,11463.0,11500.0,0,2018,10,26,5,17830
11463.0,11463.0,11463.0,11500.0,0,2018,10,29,1,17833
11463.0,11463.0,11463.0,11500.0,0,2018,10,30,2,17834
11463.0,11463.0,11463.0,11500.0,0,2018,10,31,3,17835
11463.0,11463.0,11463.0,11500.0,0,2018,11,1,4,17836
11463.0,11463.0,11463.0,11500.0,0,2018,11,2,5,17837
11463.0,11463.0,11463.0,11500.0,0,2018,11,5,1,17840
11463.0,11463.0,11463.0,11500.0,0,2018,11,6,2,17841
11463.0,11463.0,11463.0,11500.0,0,2018,11,7,3,17842
11463.0,11463.0,11463.0,11500.0,0,2018,11,8,4,17843
11463.0,11463.0,11463.0,11500.0,0,2018,11,9,5,17844
11463.0,11463.0,11463.0,11500.0,0,2018,11,12,1,17847
11463.0,11463.0,11463.0,11500.0,0,2018,11,13,2,17848
11463.0,11463.0,11463.0,11500.0,0,2018,11,14,3,17849
11463.0,11463.0,11463.0,11500.0,0,2018,11,15,4,17850
11463.0,11463.0,11463.0,11500.0,0,2018,11,16,5,17851
11463.0,11463.0,11463.0,11500.0,0,2018,11,19,1,17854
11463.0,11463.0,11463.0,11500.0,0,2018,11,20,2,17855
16034.0,16034.0,16034.0,16000.0,200,2018,11,21,3,17856
16034.0,16034.0,16034.0,16000.0,0,2018,11,22,4,17857
18425.0,18425.0,18425.0,18400.0,100,2018,11,23,5,17858
18425.0,18425.0,18425.0,18400.0,0,2018,11,26,1,17861
18425.0,18425.0,18425.0,18400.0,0,2018,11,27,2,17862
18425.0,18425.0,18425.0,18400.0,0,2018,11,28,3,17863
18425.0,18425.0,18425.0,18400.0,0,2018,11,29,4,17864
18425.0,18425.0,18425.0,18400.0,0,2018,11,30,5,17865
18425.0,18425.0,18425.0,18400.0,0,2018,12,3,1,17868
18425.0,18425.0,18425.0,18400.0,0,2018,12,4,2,17869
18425.0,18425.0,18425.0,18400.0,0,2018,12,5,3,17870
18425.0,18425.0,18425.0,18400.0,0,2018,12,6,4,17871
18425.0,18425.0,18425.0,18400.0,0,2018,12,7,5,17872
18425.0,18425.0,18425.0,18400.0,0,2018,12,10,1,17875
18425.0,18425.0,18425.0,18400.0,0,2018,12,11,2,17876
18425.0,18425.0,18425.0,18400.0,0,2018,12,12,3,17877
18425.0,18425.0,18425.0,18400.0,0,2018,12,13,4,17878
18425.0,18425.0,18425.0,18400.0,0,2018,12,14,5,17879
18425.0,18425.0,18425.0,18400.0,0,2018,12,17,1,17882
18425.0,18425.0,18425.0,18400.0,0,2018,12,18,2,17883
18425.0,18425.0,18425.0,18400.0,0,2018,12,19,3,17884
18425.0,18425.0,18425.0,18400.0,0,2018,12,20,4,17885
18425.0,18425.0,18425.0,18400.0,0,2018,12,21,5,17886
18425.0,18425.0,18425.0,18400.0,0,2018,12,24,1,17889
18425.0,18425.0,18425.0,18400.0,0,2018,12,25,2,17890
18425.0,18425.0,18425.0,18400.0,0,2018,12,26,3,17891
18425.0,18425.0,18425.0,18400.0,0,2018,12,27,4,17892
18425.0,18425.0,18425.0,18400.0,0,2018,12,28,5,17893
18425.0,18425.0,18425.0,18400.0,0,2019,1,2,3,17898
18425.0,18425.0,18425.0,18400.0,0,2019,1,3,4,17899
18425.0,18425.0,18425.0,18400.0,0,2019,1,4,5,17900
18425.0,18425.0,18425.0,18400.0,0,2019,1,7,1,17903
18425.0,18425.0,18425.0,18400.0,0,2019,1,8,2,17904
18425.0,18425.0,18425.0,18400.0,0,2019,1,9,3,17905
18425.0,18425.0,18425.0,18400.0,0,2019,1,10,4,17906
18425.0,18425.0,18425.0,18400.0,0,2019,1,11,5,17907
18425.0,18425.0,18425.0,18400.0,0,2019,1,14,1,17910
18425.0,18425.0,18425.0,18400.0,0,2019,1,15,2,17911
18425.0,18425.0,18425.0,18400.0,0,2019,1,16,3,17912
18425.0,18425.0,18425.0,18400.0,0,2019,1,17,4,17913
18425.0,18425.0,18425.0,18400.0,0,2019,1,18,5,17914
18425.0,18425.0,18425.0,18400.0,0,2019,1,21,1,17917
18425.0,18425.0,18425.0,18400.0,0,2019,1,22,2,17918
18425.0,18425.0,18425.0,18400.0,0,2019,1,23,3,17919
18425.0,18425.0,18425.0,18400.0,0,2019,1,24,4,17920
18425.0,18425.0,18425.0,18400.0,0,2019,1,25,5,17921
18425.0,18425.0,18425.0,18400.0,0,2019,1,28,1,17924
18425.0,18425.0,18425.0,18400.0,0,2019,1,29,2,17925
18425.0,18425.0,18425.0,18400.0,0,2019,1,30,3,17926
18425.0,18425.0,18425.0,18400.0,0,2019,1,31,4,17927
18425.0,18425.0,18425.0,18400.0,0,2019,2,1,5,17928
18425.0,18425.0,18425.0,18400.0,0,2019,2,11,1,17938
18425.0,18425.0,18425.0,18400.0,0,2019,2,12,2,17939
18425.0,18425.0,18425.0,18400.0,0,2019,2,13,3,17940
18425.0,18425.0,18425.0,18400.0,0,2019,2,14,4,17941
18425.0,18425.0,18425.0,18400.0,0,2019,2,15,5,17942
18425.0,18425.0,18425.0,18400.0,0,2019,2,18,1,17945
18425.0,18425.0,18425.0,18400.0,0,2019,2,19,2,17946
18425.0,18425.0,18425.0,18400.0,0,2019,2,20,3,17947
18425.0,18425.0,18425.0,18400.0,0,2019,2,21,4,17948
18425.0,18425.0,18425.0,18400.0,0,2019,2,22,5,17949
18425.0,18425.0,18425.0,18400.0,0,2019,2,25,1,17952
18425.0,18425.0,18425.0,18400.0,0,2019,2,26,2,17953
18425.0,18425.0,18425.0,18400.0,0,2019,2,27,3,17954
18425.0,18425.0,18425.0,18400.0,0,2019,2,28,4,17955
18425.0,18425.0,18425.0,18400.0,0,2019,3,1,5,17956
18425.0,18425.0,18425.0,18400.0,0,2019,3,4,1,17959
18425.0,18425.0,18425.0,18400.0,0,2019,3,5,2,17960
18425.0,18425.0,18425.0,18400.0,0,2019,3,6,3,17961
18425.0,18425.0,18425.0,18400.0,0,2019,3,7,4,17962
18425.0,18425.0,18425.0,18400.0,0,2019,3,8,5,17963
18425.0,18425.0,18425.0,18400.0,0,2019,3,11,1,17966
18425.0,18425.0,18425.0,18400.0,0,2019,3,12,2,17967
18425.0,18425.0,18425.0,18400.0,0,2019,3,13,3,17968
18425.0,18425.0,18425.0,18400.0,0,2019,3,14,4,17969
18425.0,18425.0,18425.0,18400.0,0,2019,3,15,5,17970
18425.0,18425.0,18425.0,18400.0,0,2019,3,18,1,17973
18425.0,18425.0,18425.0,18400.0,0,2019,3,19,2,17974
18425.0,18425.0,18425.0,18400.0,0,2019,3,20,3,17975
18425.0,18425.0,18425.0,18400.0,0,2019,3,21,4,17976
18425.0,18425.0,18425.0,18400.0,0,2019,3,22,5,17977
18425.0,18425.0,18425.0,18400.0,0,2019,3,25,1,17980
18425.0,18425.0,18425.0,18400.0,0,2019,3,26,2,17981
18425.0,18425.0,18425.0,18400.0,0,2019,3,27,3,17982
18425.0,18425.0,18425.0,18400.0,0,2019,3,28,4,17983
18425.0,18425.0,18425.0,18400.0,0,2019,3,29,5,17984
18425.0,18425.0,18425.0,18400.0,0,2019,4,1,1,17987
18425.0,18425.0,18425.0,18400.0,0,2019,4,2,2,17988
18425.0,18425.0,18425.0,18400.0,0,2019,4,3,3,17989
18425.0,18425.0,18425.0,18400.0,0,2019,4,4,4,17990
18425.0,18425.0,18425.0,18400.0,0,2019,4,5,5,17991
18425.0,18425.0,18425.0,18400.0,0,2019,4,8,1,17994
18425.0,18425.0,18425.0,18400.0,0,2019,4,9,2,17995
18425.0,18425.0,18425.0,18400.0,0,2019,4,10,3,17996
18425.0,18425.0,18425.0,18400.0,0,2019,4,11,4,17997
18425.0,18425.0,18425.0,18400.0,0,2019,4,12,5,17998
18425.0,18425.0,18425.0,18400.0,0,2019,4,16,2,18002
18425.0,18425.0,18425.0,18400.0,0,2019,4,17,3,18003
18425.0,18425.0,18425.0,18400.0,0,2019,4,18,4,18004
18425.0,18425.0,18425.0,18400.0,0,2019,4,19,5,18005
18425.0,18425.0,18425.0,18400.0,0,2019,4,22,1,18008
18425.0,18425.0,18425.0,18400.0,0,2019,4,23,2,18009
18425.0,18425.0,18425.0,18400.0,0,2019,4,24,3,18010
18425.0,18425.0,18425.0,18400.0,0,2019,4,25,4,18011
18425.0,18425.0,18425.0,18400.0,0,2019,4,26,5,18012
18425.0,18425.0,18425.0,18400.0,0,2019,5,2,4,18018
18425.0,18425.0,18425.0,18400.0,0,2019,5,3,5,18019
18425.0,18425.0,18425.0,18400.0,0,2019,5,6,1,18022
18425.0,18425.0,18425.0,18400.0,0,2019,5,7,2,18023
18425.0,18425.0,18425.0,18400.0,0,2019,5,8,3,18024
18425.0,18425.0,18425.0,18400.0,0,2019,5,9,4,18025
18425.0,18425.0,18425.0,18400.0,0,2019,5,10,5,18026
18425.0,18425.0,18425.0,18400.0,0,2019,5,13,1,18029
18425.0,18425.0,18425.0,18400.0,0,2019,5,14,2,18030
18425.0,18425.0,18425.0,18400.0,0,2019,5,15,3,18031
18425.0,18425.0,18425.0,18400.0,0,2019,5,16,4,18032
18425.0,18425.0,18425.0,18400.0,0,2019,5,17,5,18033
18425.0,18425.0,18425.0,18400.0,0,2019,5,20,1,18036
18425.0,18425.0,18425.0,18400.0,0,2019,5,21,2,18037
18425.0,18425.0,18425.0,18400.0,0,2019,5,22,3,18038
18425.0,18425.0,18425.0,18400.0,0,2019,5,23,4,18039
18425.0,18425.0,18425.0,18400.0,0,2019,5,24,5,18040
18425.0,18425.0,18425.0,18400.0,0,2019,5,27,1,18043
18425.0,18425.0,18425.0,18400.0,0,2019,5,28,2,18044
18425.0,18425.0,18425.0,18400.0,0,2019,5,29,3,18045
18425.0,18425.0,18425.0,18400.0,0,2019,5,30,4,18046
18425.0,18425.0,18425.0,18400.0,0,2019,5,31,5,18047
18425.0,18425.0,18425.0,18400.0,0,2019,6,3,1,18050
18425.0,18425.0,18425.0,18400.0,0,2019,6,4,2,18051
18425.0,18425.0,18425.0,18400.0,0,2019,6,5,3,18052
18425.0,18425.0,18425.0,18400.0,0,2019,6,6,4,18053
18425.0,18425.0,18425.0,18400.0,0,2019,6,7,5,18054
18425.0,18425.0,18425.0,18400.0,0,2019,6,10,1,18057
18425.0,18425.0,18425.0,18400.0,0,2019,6,11,2,18058
18425.0,18425.0,18425.0,18400.0,0,2019,6,12,3,18059
18425.0,18425.0,18425.0,18400.0,0,2019,6,13,4,18060
18425.0,18425.0,18425.0,18400.0,0,2019,6,14,5,18061
18425.0,18425.0,18425.0,18400.0,0,2019,6,17,1,18064
18425.0,18425.0,18425.0,18400.0,0,2019,6,18,2,18065
18425.0,18425.0,18425.0,18400.0,0,2019,6,19,3,18066
18425.0,18425.0,18425.0,18400.0,0,2019,6,20,4,18067
18425.0,18425.0,18425.0,18400.0,0,2019,6,21,5,18068
18425.0,18425.0,18425.0,18400.0,0,2019,6,24,1,18071
18425.0,18425.0,18425.0,18400.0,0,2019,6,25,2,18072
18425.0,18425.0,18425.0,18400.0,0,2019,6,26,3,18073
18425.0,18425.0,18425.0,18400.0,0,2019,6,27,4,18074
18425.0,18425.0,18425.0,18400.0,0,2019,6,28,5,18075
18425.0,18425.0,18425.0,18400.0,0,2019,7,1,1,18078
18425.0,18425.0,18425.0,18400.0,0,2019,7,2,2,18079
18425.0,18425.0,18425.0,18400.0,0,2019,7,3,3,18080
18425.0,18425.0,18425.0,18400.0,0,2019,7,4,4,18081
18425.0,18425.0,18425.0,18400.0,0,2019,7,5,5,18082
18425.0,18425.0,18425.0,18400.0,0,2019,7,8,1,18085
18425.0,18425.0,18425.0,18400.0,0,2019,7,9,2,18086
18425.0,18425.0,18425.0,18400.0,0,2019,7,10,3,18087
18425.0,18425.0,18425.0,18400.0,0,2019,7,11,4,18088
18425.0,18425.0,18425.0,18400.0,0,2019,7,12,5,18089
18426.0,18426.0,18426.0,18400.0,0,2019,7,15,1,18092
18426.0,18426.0,18426.0,18400.0,0,2019,7,16,2,18093
18426.0,18426.0,18426.0,18400.0,0,2019,7,17,3,18094
18426.0,18426.0,18426.0,18400.0,0,2019,7,18,4,18095
18426.0,18426.0,18426.0,18400.0,0,2019,7,19,5,18096
18426.0,18426.0,18426.0,18400.0,0,2019,7,22,1,18099
18426.0,18426.0,18426.0,18400.0,0,2019,7,23,2,18100
18426.0,18426.0,18426.0,18400.0,0,2019,7,24,3,18101
18426.0,18426.0,18426.0,18400.0,0,2019,7,25,4,18102
18426.0,18426.0,18426.0,18400.0,0,2019,7,26,5,18103
18426.0,18426.0,18426.0,18400.0,0,2019,7,29,1,18106
18426.0,18426.0,18426.0,18400.0,0,2019,7,30,2,18107
18426.0,18426.0,18426.0,18400.0,0,2019,7,31,3,18108
18426.0,18426.0,18426.0,18400.0,0,2019,8,1,4,18109
18426.0,18426.0,18426.0,18400.0,0,2019,8,2,5,18110
18426.0,18426.0,18426.0,18400.0,0,2019,8,5,1,18113
18426.0,18426.0,18426.0,18400.0,0,2019,8,6,2,18114
18426.0,18426.0,18426.0,18400.0,0,2019,8,7,3,18115
18426.0,18426.0,18426.0,18400.0,0,2019,8,8,4,18116
18426.0,18426.0,18426.0,18400.0,0,2019,8,9,5,18117
18426.0,18426.0,18426.0,18400.0,0,2019,8,12,1,18120
18426.0,18426.0,18426.0,18400.0,0,2019,8,13,2,18121
18426.0,18426.0,18426.0,18400.0,0,2019,8,14,3,18122
18426.0,18426.0,18426.0,18400.0,0,2019,8,15,4,18123
18426.0,18426.0,18426.0,18400.0,0,2019,8,16,5,18124
18426.0,18426.0,18426.0,18400.0,0,2019,8,19,1,18127
18426.0,18426.0,18426.0,18400.0,0,2019,8,20,2,18128
18426.0,18426.0,18426.0,18400.0,0,2019,8,21,3,18129
18426.0,18426.0,18426.0,18400.0,0,2019,8,22,4,18130
18426.0,18426.0,18426.0,18400.0,0,2019,8,23,5,18131
18426.0,18426.0,18426.0,18400.0,0,2019,8,26,1,18134
18426.0,18426.0,18426.0,18400.0,0,2019,8,27,2,18135
18426.0,18426.0,18426.0,18400.0,0,2019,8,28,3,18136
18426.0,18426.0,18426.0,18400.0,0,2019,8,29,4,18137
18426.0,18426.0,18426.0,18400.0,0,2019,8,30,5,18138
18426.0,18426.0,18426.0,18400.0,0,2019,9,3,2,18142
18426.0,18426.0,18426.0,18400.0,0,2019,9,4,3,18143
18426.0,18426.0,18426.0,18400.0,0,2019,9,5,4,18144
18426.0,18426.0,18426.0,18400.0,0,2019,9,6,5,18145
18426.0,18426.0,18426.0,18400.0,0,2019,9,9,1,18148
18426.0,18426.0,18426.0,18400.0,0,2019,9,10,2,18149
18426.0,18426.0,18426.0,18400.0,0,2019,9,11,3,18150
18426.0,18426.0,18426.0,18400.0,0,2019,9,12,4,18151
18426.0,18426.0,18426.0,18400.0,0,2019,9,13,5,18152
18426.0,18426.0,18426.0,18400.0,0,2019,9,16,1,18155
18426.0,18426.0,18426.0,18400.0,0,2019,9,17,2,18156
18426.0,18426.0,18426.0,18400.0,0,2019,9,18,3,18157
18426.0,18426.0,18426.0,18400.0,0,2019,9,19,4,18158
18426.0,18426.0,18426.0,18400.0,0,2019,9,20,5,18159
18426.0,18426.0,18426.0,18400.0,0,2019,9,23,1,18162
18426.0,18426.0,18426.0,18400.0,0,2019,9,24,2,18163
18426.0,18426.0,18426.0,18400.0,0,2019,9,25,3,18164
18426.0,18426.0,18426.0,18400.0,0,2019,9,26,4,18165
18426.0,18426.0,18426.0,18400.0,0,2019,9,27,5,18166
18426.0,18426.0,18426.0,18400.0,0,2019,9,30,1,18169
18426.0,18426.0,18426.0,18400.0,0,2019,10,1,2,18170
18426.0,18426.0,18426.0,18400.0,0,2019,10,2,3,18171
18426.0,18426.0,18426.0,18400.0,0,2019,10,3,4,18172
18426.0,18426.0,18426.0,18400.0,0,2019,10,4,5,18173
18426.0,18426.0,18426.0,18400.0,0,2019,10,7,1,18176
18426.0,18426.0,18426.0,18400.0,0,2019,10,8,2,18177
18426.0,18426.0,18426.0,18400.0,0,2019,10,9,3,18178
18426.0,18426.0,18426.0,18400.0,0,2019,10,10,4,18179
18426.0,18426.0,18426.0,18400.0,0,2019,10,11,5,18180
18426.0,18426.0,18426.0,18400.0,0,2019,10,14,1,18183
18426.0,18426.0,18426.0,18400.0,0,2019,10,15,2,18184
18426.0,18426.0,18426.0,18400.0,0,2019,10,16,3,18185
18426.0,18426.0,18426.0,18400.0,0,2019,10,17,4,18186
18426.0,18426.0,18426.0,18400.0,0,2019,10,18,5,18187
18426.0,18426.0,18426.0,18400.0,0,2019,10,21,1,18190
18426.0,18426.0,18426.0,18400.0,0,2019,10,22,2,18191
18426.0,18426.0,18426.0,18400.0,0,2019,10,23,3,18192
18426.0,18426.0,18426.0,18400.0,0,2019,10,24,4,18193
18426.0,18426.0,18426.0,18400.0,0,2019,10,25,5,18194
18426.0,18426.0,18426.0,18400.0,0,2019,10,28,1,18197
18426.0,18426.0,18426.0,18400.0,0,2019,10,29,2,18198
18426.0,18426.0,18426.0,18400.0,0,2019,10,30,3,18199
18426.0,18426.0,18426.0,18400.0,0,2019,10,31,4,18200
18426.0,18426.0,18426.0,18400.0,0,2019,11,1,5,18201
18426.0,18426.0,18426.0,18400.0,0,2019,11,4,1,18204
18426.0,18426.0,18426.0,18400.0,0,2019,11,5,2,18205
18426.0,18426.0,18426.0,18400.0,0,2019,11,6,3,18206
18426.0,18426.0,18426.0,18400.0,0,2019,11,7,4,18207
18426.0,18426.0,18426.0,18400.0,0,2019,11,8,5,18208
18426.0,18426.0,18426.0,18400.0,0,2019,11,11,1,18211
18426.0,18426.0,18426.0,18400.0,0,2019,11,12,2,18212
18426.0,18426.0,18426.0,18400.0,0,2019,11,13,3,18213
18426.0,18426.0,18426.0,18400.0,0,2019,11,14,4,18214
18426.0,18426.0,18426.0,18400.0,0,2019,11,15,5,18215
18426.0,18426.0,18426.0,18400.0,0,2019,11,18,1,18218
18426.0,18426.0,18426.0,18400.0,0,2019,11,19,2,18219
18426.0,18426.0,18426.0,18400.0,0,2019,11,20,3,18220
18426.0,18426.0,18426.0,18400.0,0,2019,11,21,4,18221
18426.0,18426.0,18426.0,18400.0,0,2019,11,22,5,18222
18426.0,18426.0,18426.0,18400.0,0,2019,11,25,1,18225
18426.0,18426.0,18426.0,18400.0,0,2019,11,26,2,18226
18426.0,18426.0,18426.0,18400.0,0,2019,11,27,3,18227
18426.0,18426.0,18426.0,18400.0,0,2019,11,28,4,18228
18426.0,18426.0,18426.0,18400.0,0,2019,11,29,5,18229
18426.0,18426.0,18426.0,18400.0,0,2019,12,2,1,18232
18426.0,18426.0,18426.0,18400.0,0,2019,12,3,2,18233
18426.0,18426.0,18426.0,18400.0,0,2019,12,4,3,18234
18426.0,18426.0,18426.0,18400.0,0,2019,12,5,4,18235
18426.0,18426.0,18426.0,18400.0,0,2019,12,6,5,18236
18426.0,18426.0,18426.0,18400.0,0,2019,12,9,1,18239
18426.0,18426.0,18426.0,18400.0,0,2019,12,10,2,18240
18426.0,18426.0,18426.0,18400.0,0,2019,12,11,3,18241
18426.0,18426.0,18426.0,18400.0,0,2019,12,12,4,18242
18426.0,18426.0,18426.0,18400.0,0,2019,12,13,5,18243
18426.0,18426.0,18426.0,18400.0,0,2019,12,16,1,18246
18426.0,18426.0,18426.0,18400.0,0,2019,12,17,2,18247
18426.0,18426.0,18426.0,18400.0,0,2019,12,18,3,18248
18426.0,18426.0,18426.0,18400.0,0,2019,12,19,4,18249
18426.0,18426.0,18426.0,18400.0,0,2019,12,20,5,18250
18426.0,18426.0,18426.0,18400.0,0,2019,12,23,1,18253
18426.0,18426.0,18426.0,18400.0,0,2019,12,24,2,18254
18426.0,18426.0,18426.0,18400.0,0,2019,12,25,3,18255
18426.0,18426.0,18426.0,18400.0,0,2019,12,26,4,18256
18426.0,18426.0,18426.0,18400.0,0,2019,12,27,5,18257
18426.0,18426.0,18426.0,18400.0,0,2019,12,30,1,18260
18426.0,18426.0,18426.0,18400.0,0,2019,12,31,2,18261
18426.0,18426.0,18426.0,18400.0,0,2020,1,2,4,18263
18426.0,18426.0,18426.0,18400.0,0,2020,1,3,5,18264
18426.0,18426.0,18426.0,18400.0,0,2020,1,6,1,18267
18426.0,18426.0,18426.0,18400.0,0,2020,1,7,2,18268
18426.0,18426.0,18426.0,18400.0,0,2020,1,8,3,18269
18426.0,18426.0,18426.0,18400.0,0,2020,1,9,4,18270
18426.0,18426.0,18426.0,18400.0,0,2020,1,10,5,18271
18426.0,18426.0,18426.0,18400.0,0,2020,1,13,1,18274
18426.0,18426.0,18426.0,18400.0,0,2020,1,14,2,18275
18426.0,18426.0,18426.0,18400.0,0,2020,1,15,3,18276
18426.0,18426.0,18426.0,18400.0,0,2020,1,16,4,18277
18426.0,18426.0,18426.0,18400.0,0,2020,1,17,5,18278
18426.0,18426.0,18426.0,18400.0,0,2020,1,20,1,18281
18426.0,18426.0,18426.0,18400.0,0,2020,1,21,2,18282
18426.0,18426.0,18426.0,18400.0,0,2020,1,22,3,18283
18426.0,18426.0,18426.0,18400.0,0,2020,1,30,4,18291
18426.0,18426.0,18426.0,18400.0,0,2020,1,31,5,18292
18426.0,18426.0,18426.0,18400.0,0,2020,2,3,1,18295
18426.0,18426.0,18426.0,18400.0,0,2020,2,4,2,18296
18426.0,18426.0,18426.0,18400.0,0,2020,2,5,3,18297
18426.0,18426.0,18426.0,18400.0,0,2020,2,6,4,18298
18426.0,18426.0,18426.0,18400.0,0,2020,2,7,5,18299
18426.0,18426.0,18426.0,18400.0,0,2020,2,10,1,18302
18426.0,18426.0,18426.0,18400.0,0,2020,2,11,2,18303
18426.0,18426.0,18426.0,18400.0,0,2020,2,12,3,18304
18426.0,18426.0,18426.0,18400.0,0,2020,2,13,4,18305
18426.0,18426.0,18426.0,18400.0,0,2020,2,14,5,18306
18426.0,18426.0,18426.0,18400.0,0,2020,2,17,1,18309
18426.0,18426.0,18426.0,18400.0,0,2020,2,18,2,18310
18426.0,18426.0,18426.0,18400.0,0,2020,2,19,3,18311
18426.0,18426.0,18426.0,18400.0,0,2020,2,20,4,18312
18426.0,18426.0,18426.0,18400.0,0,2020,2,21,5,18313
18426.0,18426.0,18426.0,18400.0,0,2020,2,24,1,18316
18426.0,18426.0,18426.0,18400.0,0,2020,2,25,2,18317
18426.0,18426.0,18426.0,18400.0,0,2020,2,26,3,18318
18426.0,18426.0,18426.0,18400.0,0,2020,2,27,4,18319
18426.0,18426.0,18426.0,18400.0,0,2020,2,28,5,18320
18426.0,18426.0,18426.0,18400.0,0,2020,3,2,1,18323
18426.0,18426.0,18426.0,18400.0,0,2020,3,3,2,18324
18426.0,18426.0,18426.0,18400.0,0,2020,3,4,3,18325
18426.0,18426.0,18426.0,18400.0,0,2020,3,5,4,18326
18426.0,18426.0,18426.0,18400.0,0,2020,3,6,5,18327
18426.0,18426.0,18426.0,18400.0,0,2020,3,9,1,18330
18426.0,18426.0,18426.0,18400.0,0,2020,3,10,2,18331
18426.0,18426.0,18426.0,18400.0,0,2020,3,11,3,18332
18426.0,18426.0,18426.0,18400.0,0,2020,3,12,4,18333
18426.0,18426.0,18426.0,18400.0,0,2020,3,13,5,18334
18426.0,18426.0,18426.0,18400.0,0,2020,3,16,1,18337
18426.0,18426.0,18426.0,18400.0,0,2020,3,17,2,18338
18426.0,18426.0,18426.0,18400.0,0,2020,3,18,3,18339
18426.0,18426.0,18426.0,18400.0,0,2020,3,19,4,18340
18426.0,18426.0,18426.0,18400.0,0,2020,3,20,5,18341
18426.0,18426.0,18426.0,18400.0,0,2020,3,23,1,18344
18426.0,18426.0,18426.0,18400.0,0,2020,3,24,2,18345
18426.0,18426.0,18426.0,18400.0,0,2020,3,25,3,18346
18426.0,18426.0,18426.0,18400.0,0,2020,3,26,4,18347
18426.0,18426.0,18426.0,18400.0,0,2020,3,27,5,18348
18426.0,18426.0,18426.0,18400.0,0,2020,3,30,1,18351
18426.0,18426.0,18426.0,18400.0,0,2020,3,31,2,18352
18426.0,18426.0,18426.0,18400.0,0,2020,4,1,3,18353
18426.0,18426.0,18426.0,18400.0,0,2020,4,3,5,18355
18426.0,18426.0,18426.0,18400.0,0,2020,4,6,1,18358
18426.0,18426.0,18426.0,18400.0,0,2020,4,7,2,18359
18426.0,18426.0,18426.0,18400.0,0,2020,4,8,3,18360
18426.0,18426.0,18426.0,18400.0,0,2020,4,9,4,18361
18426.0,18426.0,18426.0,18400.0,0,2020,4,10,5,18362
18426.0,18426.0,18426.0,18400.0,0,2020,4,13,1,18365
18426.0,18426.0,18426.0,18400.0,0,2020,4,14,2,18366
18426.0,18426.0,18426.0,18400.0,0,2020,4,15,3,18367
18426.0,18426.0,18426.0,18400.0,0,2020,4,16,4,18368
18426.0,18426.0,18426.0,18400.0,0,2020,4,17,5,18369
18426.0,18426.0,18426.0,18400.0,0,2020,4,20,1,18372
18426.0,18426.0,18426.0,18400.0,0,2020,4,21,2,18373
18426.0,18426.0,18426.0,18400.0,0,2020,4,22,3,18374
18426.0,18426.0,18426.0,18400.0,0,2020,4,23,4,18375
18426.0,18426.0,18426.0,18400.0,0,2020,4,24,5,18376
18426.0,18426.0,18426.0,18400.0,0,2020,4,27,1,18379
18426.0,18426.0,18426.0,18400.0,0,2020,4,28,2,18380
18426.0,18426.0,18426.0,18400.0,0,2020,4,29,3,18381
18426.0,18426.0,18426.0,18400.0,0,2020,5,4,1,18386
18426.0,18426.0,18426.0,18400.0,0,2020,5,5,2,18387
18426.0,18426.0,18426.0,18400.0,0,2020,5,6,3,18388
18426.0,18426.0,18426.0,18400.0,0,2020,5,7,4,18389
18426.0,18426.0,18426.0,18400.0,0,2020,5,8,5,18390
18426.0,18426.0,18426.0,18400.0,0,2020,5,11,1,18393
18426.0,18426.0,18426.0,18400.0,0,2020,5,12,2,18394
18426.0,18426.0,18426.0,18400.0,0,2020,5,13,3,18395
18426.0,18426.0,18426.0,18400.0,0,2020,5,14,4,18396
18426.0,18426.0,18426.0,18400.0,0,2020,5,15,5,18397
18426.0,18426.0,18426.0,18400.0,0,2020,5,18,1,18400
18426.0,18426.0,18426.0,18400.0,0,2020,5,19,2,18401
18426.0,18426.0,18426.0,18400.0,0,2020,5,20,3,18402
18426.0,18426.0,18426.0,18400.0,0,2020,5,21,4,18403
18426.0,18426.0,18426.0,18400.0,0,2020,5,22,5,18404
18426.0,18426.0,18426.0,18400.0,0,2020,5,25,1,18407
18426.0,18426.0,18426.0,18400.0,0,2020,5,26,2,18408
18426.0,18426.0,18426.0,18400.0,0,2020,5,27,3,18409
18426.0,18426.0,18426.0,18400.0,0,2020,5,28,4,18410
14920.0,14920.0,14920.0,14900.0,1600,2020,5,29,5,18411
14920.0,14920.0,14920.0,14900.0,70,2020,6,1,1,18414
14920.0,14920.0,14920.0,14900.0,0,2020,6,2,2,18415
14920.0,14920.0,14920.0,14900.0,0,2020,6,3,3,18416
14920.0,14920.0,14920.0,14900.0,0,2020,6,4,4,18417
14920.0,14920.0,14920.0,14900.0,0,2020,6,5,5,18418
14920.0,14920.0,14920.0,14900.0,0,2020,6,8,1,18421
14920.0,14920.0,14920.0,14900.0,0,2020,6,9,2,18422
14920.0,14920.0,14920.0,14900.0,0,2020,6,10,3,18423
14920.0,14920.0,14920.0,14900.0,0,2020,6,11,4,18424
14920.0,14920.0,14920.0,14900.0,0,2020,6,12,5,18425
14920.0,14920.0,14920.0,14900.0,0,2020,6,15,1,18428
14920.0,14920.0,14920.0,14900.0,0,2020,6,16,2,18429
14920.0,14920.0,14920.0,14900.0,0,2020,6,17,3,18430
14920.0,14920.0,14920.0,14900.0,0,2020,6,18,4,18431
14920.0,14920.0,14920.0,14900.0,0,2020,6,19,5,18432
14920.0,14920.0,14920.0,14900.0,0,2020,6,22,1,18435
14920.0,14920.0,14920.0,14900.0,0,2020,6,23,2,18436
14920.0,14920.0,14920.0,14900.0,0,2020,6,24,3,18437
14920.0,14920.0,14920.0,14900.0,0,2020,6,25,4,18438
14920.0,14920.0,14920.0,14900.0,0,2020,6,26,5,18439
14920.0,14920.0,14920.0,14900.0,0,2020,6,29,1,18442
14920.0,14920.0,14920.0,14900.0,0,2020,6,30,2,18443
14920.0,14920.0,14920.0,14900.0,0,2020,7,1,3,18444
14920.0,14920.0,14920.0,14900.0,0,2020,7,2,4,18445
14920.0,14920.0,14920.0,14900.0,0,2020,7,3,5,18446
14920.0,14920.0,14920.0,14900.0,0,2020,7,6,1,18449
14920.0,14920.0,14920.0,14900.0,0,2020,7,7,2,18450
14920.0,14920.0,14920.0,14900.0,0,2020,7,8,3,18451
14920.0,14920.0,14920.0,14900.0,0,2020,7,9,4,18452
14920.0,14920.0,14920.0,14900.0,0,2020,7,10,5,18453
14920.0,14920.0,14920.0,14900.0,0,2020,7,13,1,18456
14920.0,14920.0,14920.0,14900.0,0,2020,7,14,2,18457
14920.0,14920.0,14920.0,14900.0,0,2020,7,15,3,18458
14920.0,14920.0,14920.0,14900.0,0,2020,7,16,4,18459
14920.0,14920.0,14920.0,14900.0,0,2020,7,17,5,18460
14920.0,14920.0,14920.0,14900.0,0,2020,7,20,1,18463
14920.0,14920.0,14920.0,14900.0,0,2020,7,21,2,18464
14920.0,14920.0,14920.0,14900.0,0,2020,7,22,3,18465
14920.0,14920.0,14920.0,14900.0,0,2020,7,23,4,18466
14920.0,14920.0,14920.0,14900.0,0,2020,7,24,5,18467
14920.0,14920.0,14920.0,14900.0,0,2020,7,27,1,18470
14920.0,14920.0,14920.0,14900.0,0,2020,7,28,2,18471
14920.0,14920.0,14920.0,14900.0,0,2020,7,29,3,18472
14920.0,14920.0,14920.0,14900.0,0,2020,7,30,4,18473
14920.0,14920.0,14920.0,14900.0,0,2020,7,31,5,18474
14920.0,14920.0,14920.0,14900.0,0,2020,8,3,1,18477
14920.0,14920.0,14920.0,14900.0,0,2020,8,4,2,18478
14920.0,14920.0,14920.0,14900.0,0,2020,8,5,3,18479
14920.0,14920.0,14920.0,14900.0,0,2020,8,6,4,18480
14920.0,14920.0,14920.0,14900.0,0,2020,8,7,5,18481
14920.0,14920.0,14920.0,14900.0,0,2020,8,10,1,18484
14920.0,14920.0,14920.0,14900.0,0,2020,8,11,2,18485
14920.0,14920.0,14920.0,14900.0,0,2020,8,12,3,18486
14920.0,14920.0,14920.0,14900.0,0,2020,8,13,4,18487
14920.0,14920.0,14920.0,14900.0,0,2020,8,14,5,18488
14920.0,14920.0,14920.0,14900.0,0,2020,8,17,1,18491
14920.0,14920.0,14920.0,14900.0,0,2020,8,18,2,18492
14920.0,14920.0,14920.0,14900.0,0,2020,8,19,3,18493
14920.0,14920.0,14920.0,14900.0,0,2020,8,20,4,18494
14920.0,14920.0,14920.0,14900.0,0,2020,8,21,5,18495
14920.0,14920.0,14920.0,14900.0,0,2020,8,24,1,18498
14920.0,14920.0,14920.0,14900.0,0,2020,8,25,2,18499
14920.0,14920.0,14920.0,14900.0,0,2020,8,26,3,18500
14920.0,14920.0,14920.0,14900.0,0,2020,8,27,4,18501
14920.0,14920.0,14920.0,14900.0,0,2020,8,28,5,18502
14920.0,14920.0,14920.0,14900.0,0,2020,8,31,1,18505
14920.0,14920.0,14920.0,14900.0,0,2020,9,1,2,18506
14920.0,14920.0,14920.0,14900.0,0,2020,9,3,4,18508
14920.0,14920.0,14920.0,14900.0,0,2020,9,4,5,18509
14920.0,14920.0,14920.0,14900.0,0,2020,9,7,1,18512
14920.0,14920.0,14920.0,14900.0,0,2020,9,8,2,18513
14920.0,14920.0,14920.0,14900.0,0,2020,9,9,3,18514
14920.0,14920.0,14920.0,14900.0,0,2020,9,10,4,18515
14920.0,14920.0,14920.0,14900.0,0,2020,9,11,5,18516
14920.0,14920.0,14920.0,14900.0,0,2020,9,14,1,18519
14920.0,14920.0,14920.0,14900.0,0,2020,9,15,2,18520
14920.0,14920.0,14920.0,14900.0,0,2020,9,16,3,18521
14920.0,14920.0,14920.0,14900.0,0,2020,9,17,4,18522
14920.0,14920.0,14920.0,14900.0,0,2020,9,18,5,18523
14920.0,14920.0,14920.0,14900.0,0,2020,9,21,1,18526
14920.0,14920.0,14920.0,14900.0,0,2020,9,22,2,18527
14920.0,14920.0,14920.0,14900.0,0,2020,9,23,3,18528
14920.0,14920.0,14920.0,14900.0,0,2020,9,24,4,18529
14920.0,14920.0,14920.0,14900.0,0,2020,9,25,5,18530
14920.0,14920.0,14920.0,14900.0,0,2020,9,28,1,18533
14920.0,14920.0,14920.0,14900.0,0,2020,9,29,2,18534
14920.0,14920.0,14920.0,14900.0,0,2020,9,30,3,18535
14920.0,14920.0,14920.0,14900.0,0,2020,10,1,4,18536
14920.0,14920.0,14920.0,14900.0,0,2020,10,2,5,18537
14920.0,14920.0,14920.0,14900.0,0,2020,10,5,1,18540
14920.0,14920.0,14920.0,14900.0,0,2020,10,6,2,18541
14920.0,14920.0,14920.0,14900.0,0,2020,10,7,3,18542
14920.0,14920.0,14920.0,14900.0,0,2020,10,8,4,18543
14920.0,14920.0,14920.0,14900.0,0,2020,10,9,5,18544
14920.0,14920.0,14920.0,14900.0,0,2020,10,12,1,18547
14920.0,14920.0,14920.0,14900.0,0,2020,10,13,2,18548
14920.0,14920.0,14920.0,14900.0,0,2020,10,14,3,18549
14920.0,14920.0,14920.0,14900.0,0,2020,10,15,4,18550
14920.0,14920.0,14920.0,14900.0,0,2020,10,16,5,18551
14920.0,14920.0,14920.0,14900.0,0,2020,10,19,1,18554
14920.0,14920.0,14920.0,14900.0,0,2020,10,20,2,18555
14920.0,14920.0,14920.0,14900.0,0,2020,10,21,3,18556
14920.0,14920.0,14920.0,14900.0,0,2020,10,22,4,18557
14920.0,14920.0,14920.0,14900.0,0,2020,10,23,5,18558
14920.0,14920.0,14920.0,14900.0,0,2020,10,26,1,18561
14920.0,14920.0,14920.0,14900.0,0,2020,10,27,2,18562
14920.0,14920.0,14920.0,14900.0,0,2020,10,28,3,18563
14920.0,14920.0,14920.0,14900.0,0,2020,10,29,4,18564
14920.0,14920.0,14920.0,14900.0,0,2020,10,30,5,18565
14920.0,14920.0,14920.0,14900.0,0,2020,11,2,1,18568
14920.0,14920.0,14920.0,14900.0,0,2020,11,3,2,18569
14920.0,14920.0,14920.0,14900.0,0,2020,11,4,3,18570
14920.0,14920.0,14920.0,14900.0,0,2020,11,5,4,18571
14920.0,14920.0,14920.0,14900.0,0,2020,11,6,5,18572
14920.0,14920.0,14920.0,14900.0,0,2020,11,9,1,18575
14920.0,14920.0,14920.0,14900.0,0,2020,11,10,2,18576
14920.0,14920.0,14920.0,14900.0,0,2020,11,11,3,18577
14920.0,14920.0,14920.0,14900.0,0,2020,11,12,4,18578
14920.0,14920.0,14920.0,14900.0,0,2020,11,13,5,18579
14920.0,14920.0,14920.0,14900.0,0,2020,11,16,1,18582
14920.0,14920.0,14920.0,14900.0,0,2020,11,17,2,18583
14920.0,14920.0,14920.0,14900.0,0,2020,11,18,3,18584
14920.0,14920.0,14920.0,14900.0,0,2020,11,19,4,18585
14920.0,14920.0,14920.0,14900.0,0,2020,11,20,5,18586
14920.0,14920.0,14920.0,14900.0,0,2020,11,23,1,18589
14920.0,14920.0,14920.0,14900.0,0,2020,11,24,2,18590
14920.0,14920.0,14920.0,14900.0,0,2020,11,25,3,18591
14920.0,14920.0,14920.0,14900.0,0,2020,11,26,4,18592
14920.0,14920.0,14920.0,14900.0,0,2020,11,27,5,18593
14920.0,14920.0,14920.0,14900.0,0,2020,11,30,1,18596
14920.0,14920.0,14920.0,14900.0,0,2020,12,1,2,18597
14920.0,14920.0,14920.0,14900.0,0,2020,12,2,3,18598
14920.0,14920.0,14920.0,14900.0,0,2020,12,3,4,18599
14920.0,14920.0,14920.0,14900.0,0,2020,12,4,5,18600
14920.0,14920.0,14920.0,14900.0,0,2020,12,7,1,18603
14920.0,14920.0,14920.0,14900.0,0,2020,12,8,2,18604
14920.0,14920.0,14920.0,14900.0,0,2020,12,9,3,18605
14920.0,14920.0,14920.0,14900.0,0,2020,12,10,4,18606
14920.0,14920.0,14920.0,14900.0,0,2020,12,11,5,18607
14920.0,14920.0,14920.0,14900.0,0,2020,12,14,1,18610
14920.0,14920.0,14920.0,14900.0,0,2020,12,15,2,18611
14920.0,14920.0,14920.0,14900.0,0,2020,12,16,3,18612
14920.0,14920.0,14920.0,14900.0,0,2020,12,17,4,18613
14920.0,14920.0,14920.0,14900.0,0,2020,12,18,5,18614
14920.0,14920.0,14920.0,14900.0,0,2020,12,21,1,18617
14920.0,14920.0,14920.0,14900.0,0,2020,12,22,2,18618
14920.0,14920.0,14920.0,14900.0,0,2020,12,23,3,18619
14920.0,14920.0,14920.0,14900.0,0,2020,12,24,4,18620
14920.0,14920.0,14920.0,14900.0,0,2020,12,25,5,18621
14920.0,14920.0,14920.0,14900.0,0,2020,12,28,1,18624
14920.0,14920.0,14920.0,14900.0,0,2020,12,29,2,18625
14920.0,14920.0,14920.0,14900.0,0,2020,12,30,3,18626
14920.0,14920.0,14920.0,14900.0,0,2020,12,31,4,18627
14920.0,14920.0,14920.0,14900.0,0,2021,1,4,1,18631
14920.0,14920.0,14920.0,14900.0,0,2021,1,5,2,18632
14920.0,14920.0,14920.0,14900.0,0,2021,1,6,3,18633
14920.0,14920.0,14920.0,14900.0,0,2021,1,7,4,18634
14920.0,14920.0,14920.0,14900.0,0,2021,1,8,5,18635
14920.0,14920.0,14920.0,14900.0,0,2021,1,11,1,18638
14920.0,14920.0,14920.0,14900.0,0,2021,1,12,2,18639
14920.0,14920.0,14920.0,14900.0,0,2021,1,13,3,18640
14920.0,14920.0,14920.0,14900.0,0,2021,1,14,4,18641
14920.0,14920.0,14920.0,14900.0,0,2021,1,15,5,18642
14920.0,14920.0,14920.0,14900.0,0,2021,1,18,1,18645
14920.0,14920.0,14920.0,14900.0,0,2021,1,19,2,18646
14920.0,14920.0,14920.0,14900.0,0,2021,1,20,3,18647
14920.0,14920.0,14920.0,14900.0,0,2021,1,21,4,18648
14920.0,14920.0,14920.0,14900.0,0,2021,1,22,5,18649
14920.0,14920.0,14920.0,14900.0,0,2021,1,25,1,18652
14920.0,14920.0,14920.0,14900.0,0,2021,1,26,2,18653
14920.0,14920.0,14920.0,14900.0,0,2021,1,27,3,18654
14920.0,14920.0,14920.0,14900.0,0,2021,1,28,4,18655
14920.0,14920.0,14920.0,14900.0,0,2021,1,29,5,18656
14920.0,14920.0,14920.0,14900.0,0,2021,2,1,1,18659
14920.0,14920.0,14920.0,14900.0,0,2021,2,2,2,18660
14920.0,14920.0,14920.0,14900.0,0,2021,2,3,3,18661
14920.0,14920.0,14920.0,14900.0,0,2021,2,4,4,18662
14920.0,14920.0,14920.0,14900.0,0,2021,2,5,5,18663
14920.0,14920.0,14920.0,14900.0,0,2021,2,8,1,18666
14920.0,14920.0,14920.0,14900.0,0,2021,2,9,2,18667
14920.0,14920.0,14920.0,14900.0,0,2021,2,17,3,18675
14920.0,14920.0,14920.0,14900.0,0,2021,2,18,4,18676
14920.0,14920.0,14920.0,14900.0,0,2021,2,19,5,18677
14920.0,14920.0,14920.0,14900.0,0,2021,2,22,1,18680
14920.0,14920.0,14920.0,14900.0,0,2021,2,23,2,18681
14920.0,14920.0,14920.0,14900.0,0,2021,2,24,3,18682
14920.0,14920.0,14920.0,14900.0,0,2021,2,25,4,18683
14920.0,14920.0,14920.0,14900.0,0,2021,2,26,5,18684
14920.0,14920.0,14920.0,14900.0,0,2021,3,1,1,18687
14920.0,14920.0,14920.0,14900.0,0,2021,3,2,2,18688
14920.0,14920.0,14920.0,14900.0,0,2021,3,3,3,18689
14920.0,14920.0,14920.0,14900.0,0,2021,3,4,4,18690
14920.0,14920.0,14920.0,14900.0,0,2021,3,5,5,18691
14920.0,14920.0,14920.0,14900.0,0,2021,3,8,1,18694
14920.0,14920.0,14920.0,14900.0,0,2021,3,9,2,18695
14920.0,14920.0,14920.0,14900.0,0,2021,3,10,3,18696
14920.0,14920.0,14920.0,14900.0,0,2021,3,11,4,18697
14920.0,14920.0,14920.0,14900.0,0,2021,3,12,5,18698
14920.0,14920.0,14920.0,14900.0,0,2021,3,15,1,18701
14920.0,14920.0,14920.0,14900.0,0,2021,3,16,2,18702
14920.0,14920.0,14920.0,14900.0,0,2021,3,17,3,18703
14920.0,14920.0,14920.0,14900.0,0,2021,3,18,4,18704
14920.0,14920.0,14920.0,14900.0,0,2021,3,19,5,18705
14920.0,14920.0,14920.0,14900.0,0,2021,3,22,1,18708
14920.0,14920.0,14920.0,14900.0,0,2021,3,23,2,18709
14920.0,14920.0,14920.0,14900.0,0,2021,3,24,3,18710
14920.0,14920.0,14920.0,14900.0,0,2021,3,25,4,18711
14920.0,14920.0,14920.0,14900.0,0,2021,3,26,5,18712
14920.0,14920.0,14920.0,14900.0,0,2021,3,29,1,18715
14920.0,14920.0,14920.0,14900.0,0,2021,3,30,2,18716
14920.0,14920.0,14920.0,14900.0,0,2021,3,31,3,18717
14920.0,14920.0,14920.0,14900.0,0,2021,4,1,4,18718
14920.0,14920.0,14920.0,14900.0,0,2021,4,2,5,18719
14920.0,14920.0,14920.0,14900.0,0,2021,4,5,1,18722
14920.0,14920.0,14920.0,14900.0,0,2021,4,6,2,18723
14920.0,14920.0,14920.0,14900.0,0,2021,4,7,3,18724
14920.0,14920.0,14920.0,14900.0,0,2021,4,8,4,18725
14920.0,14920.0,14920.0,14900.0,0,2021,4,9,5,18726
14920.0,14920.0,14920.0,14900.0,0,2021,4,12,1,18729
14920.0,14920.0,14920.0,14900.0,0,2021,4,13,2,18730
14920.0,14920.0,14920.0,14900.0,0,2021,4,14,3,18731
14920.0,14920.0,14920.0,14900.0,0,2021,4,15,4,18732
14920.0,14920.0,14920.0,14900.0,0,2021,4,16,5,18733
14920.0,14920.0,14920.0,14900.0,0,2021,4,19,1,18736
14920.0,14920.0,14920.0,14900.0,0,2021,4,20,2,18737
14920.0,14920.0,14920.0,14900.0,0,2021,4,22,4,18739
14920.0,14920.0,14920.0,14900.0,0,2021,4,23,5,18740
14920.0,14920.0,14920.0,14900.0,0,2021,4,26,1,18743
14920.0,14920.0,14920.0,14900.0,0,2021,4,27,2,18744
14920.0,14920.0,14920.0,14900.0,0,2021,4,28,3,18745
14920.0,14920.0,14920.0,14900.0,0,2021,4,29,4,18746
14920.0,14920.0,14920.0,14900.0,0,2021,5,4,2,18751
14920.0,14920.0,14920.0,14900.0,0,2021,5,5,3,18752
14920.0,14920.0,14920.0,14900.0,0,2021,5,6,4,18753
8952.0,8952.0,8952.0,9000.0,7700,2021,5,7,5,18754
8952.0,8952.0,8952.0,9000.0,35,2021,5,10,1,18757
8952.0,8952.0,8952.0,9000.0,0,2021,5,11,2,18758
8952.0,8952.0,8952.0,9000.0,0,2021,5,12,3,18759
8952.0,8952.0,8952.0,9000.0,0,2021,5,13,4,18760
8952.0,8952.0,8952.0,9000.0,0,2021,5,14,5,18761
8952.0,8952.0,8952.0,9000.0,0,2021,5,17,1,18764
8952.0,8952.0,8952.0,9000.0,0,2021,5,18,2,18765
8952.0,8952.0,8952.0,9000.0,0,2021,5,19,3,18766
8952.0,8952.0,8952.0,9000.0,0,2021,5,20,4,18767
8952.0,8952.0,8952.0,9000.0,0,2021,5,21,5,18768
8952.0,8952.0,8952.0,9000.0,0,2021,5,24,1,18771
8952.0,8952.0,8952.0,9000.0,0,2021,5,25,2,18772
8952.0,8952.0,8952.0,9000.0,0,2021,5,26,3,18773
8952.0,8952.0,8952.0,9000.0,0,2021,5,27,4,18774
8952.0,8952.0,8952.0,9000.0,0,2021,5,28,5,18775
8952.0,8952.0,8952.0,9000.0,0,2021,5,31,1,18778
8952.0,8952.0,8952.0,9000.0,0,2021,6,1,2,18779
8952.0,8952.0,8952.0,9000.0,0,2021,6,2,3,18780
8952.0,8952.0,8952.0,9000.0,0,2021,6,3,4,18781
8952.0,8952.0,8952.0,9000.0,0,2021,6,4,5,18782
8952.0,8952.0,8952.0,9000.0,0,2021,6,7,1,18785
8952.0,8952.0,8952.0,9000.0,0,2021,6,8,2,18786
8952.0,8952.0,8952.0,9000.0,0,2021,6,9,3,18787
8952.0,8952.0,8952.0,9000.0,0,2021,6,10,4,18788
8952.0,8952.0,8952.0,9000.0,0,2021,6,11,5,18789
8952.0,8952.0,8952.0,9000.0,0,2021,6,14,1,18792
8952.0,8952.0,8952.0,9000.0,0,2021,6,15,2,18793
8952.0,8952.0,8952.0,9000.0,0,2021,6,16,3,18794
8952.0,8952.0,8952.0,9000.0,0,2021,6,17,4,18795
8952.0,8952.0,8952.0,9000.0,0,2021,6,18,5,18796
12500.0,12500.0,12500.0,12500.0,3600,2021,6,21,1,18799
12500.0,12500.0,12500.0,12500.0,0,2021,6,22,2,18800
12500.0,12500.0,12500.0,12500.0,31,2021,6,23,3,18801
12500.0,12500.0,12500.0,12500.0,0,2021,6,24,4,18802
12500.0,12500.0,12500.0,12500.0,0,2021,6,25,5,18803
12500.0,12500.0,12500.0,12500.0,0,2021,6,28,1,18806
12500.0,12500.0,12500.0,12500.0,0,2021,6,29,2,18807
12500.0,12500.0,12500.0,12500.0,0,2021,6,30,3,18808
12500.0,12500.0,12500.0,12500.0,0,2021,7,1,4,18809
12500.0,12500.0,12500.0,12500.0,0,2021,7,2,5,18810
12500.0,12500.0,12500.0,12500.0,0,2021,7,5,1,18813
12500.0,12500.0,12500.0,12500.0,0,2021,7,6,2,18814
12500.0,12500.0,12500.0,12500.0,0,2021,7,7,3,18815
12500.0,12500.0,12500.0,12500.0,0,2021,7,8,4,18816
12500.0,12500.0,12500.0,12500.0,0,2021,7,9,5,18817
12500.0,12500.0,12500.0,12500.0,0,2021,7,12,1,18820
12500.0,12500.0,12500.0,12500.0,0,2021,7,13,2,18821
12500.0,12500.0,12500.0,12500.0,0,2021,7,14,3,18822
12500.0,12500.0,12500.0,12500.0,0,2021,7,15,4,18823
12500.0,12500.0,12500.0,12500.0,0,2021,7,16,5,18824
12500.0,12500.0,12500.0,12500.0,0,2021,7,19,1,18827
12500.0,12500.0,12500.0,12500.0,0,2021,7,20,2,18828
12500.0,12500.0,12500.0,12500.0,0,2021,7,21,3,18829
12500.0,12500.0,12500.0,12500.0,0,2021,7,22,4,18830
12500.0,12500.0,12500.0,12500.0,0,2021,7,23,5,18831
12500.0,12500.0,12500.0,12500.0,0,2021,7,26,1,18834
12500.0,12500.0,12500.0,12500.0,0,2021,7,27,2,18835
12500.0,12500.0,12500.0,12500.0,0,2021,7,28,3,18836
12500.0,12500.0,12500.0,12500.0,0,2021,7,29,4,18837
12500.0,12500.0,12500.0,12500.0,0,2021,7,30,5,18838
12500.0,12500.0,12500.0,12500.0,0,2021,8,2,1,18841
12500.0,12500.0,12500.0,12500.0,0,2021,8,3,2,18842
12500.0,12500.0,12500.0,12500.0,0,2021,8,4,3,18843
12500.0,12500.0,12500.0,12500.0,0,2021,8,5,4,18844
12500.0,12500.0,12500.0,12500.0,0,2021,8,6,5,18845
12500.0,12500.0,12500.0,12500.0,0,2021,8,9,1,18848
12500.0,12500.0,12500.0,12500.0,0,2021,8,10,2,18849
12500.0,12500.0,12500.0,12500.0,0,2021,8,11,3,18850
12500.0,12500.0,12500.0,12500.0,0,2021,8,12,4,18851
12500.0,12500.0,12500.0,12500.0,0,2021,8,13,5,18852
12500.0,12500.0,12500.0,12500.0,0,2021,8,16,1,18855
12500.0,12500.0,12500.0,12500.0,0,2021,8,17,2,18856
12500.0,12500.0,12500.0,12500.0,0,2021,8,18,3,18857
12500.0,12500.0,12500.0,12500.0,0,2021,8,19,4,18858
12500.0,12500.0,12500.0,12500.0,0,2021,8,20,5,18859
12500.0,12500.0,12500.0,12500.0,0,2021,8,23,1,18862
12500.0,12500.0,12500.0,12500.0,0,2021,8,24,2,18863
12500.0,12500.0,12500.0,12500.0,0,2021,8,25,3,18864
12500.0,12500.0,12500.0,12500.0,0,2021,8,26,4,18865
12500.0,12500.0,12500.0,12500.0,0,2021,8,27,5,18866
12500.0,12500.0,12500.0,12500.0,0,2021,8,30,1,18869
12500.0,12500.0,12500.0,12500.0,0,2021,8,31,2,18870
12500.0,12500.0,12500.0,12500.0,0,2021,9,1,3,18871
12500.0,12500.0,12500.0,12500.0,0,2021,9,6,1,18876
12500.0,12500.0,12500.0,12500.0,0,2021,9,7,2,18877
12500.0,12500.0,12500.0,12500.0,0,2021,9,8,3,18878
12500.0,12500.0,12500.0,12500.0,0,2021,9,9,4,18879
12500.0,12500.0,12500.0,12500.0,0,2021,9,10,5,18880
12500.0,12500.0,12500.0,12500.0,0,2021,9,13,1,18883
12500.0,12500.0,12500.0,12500.0,0,2021,9,14,2,18884
12500.0,12500.0,12500.0,12500.0,0,2021,9,15,3,18885
12500.0,12500.0,12500.0,12500.0,0,2021,9,16,4,18886
12500.0,12500.0,12500.0,12500.0,0,2021,9,17,5,18887
12500.0,12500.0,12500.0,12500.0,0,2021,9,20,1,18890
12500.0,12500.0,12500.0,12500.0,0,2021,9,21,2,18891
12500.0,12500.0,12500.0,12500.0,0,2021,9,22,3,18892
12500.0,12500.0,12500.0,12500.0,0,2021,9,23,4,18893
12500.0,12500.0,12500.0,12500.0,0,2021,9,24,5,18894
12500.0,12500.0,12500.0,12500.0,0,2021,9,27,1,18897
12500.0,12500.0,12500.0,12500.0,0,2021,9,28,2,18898
12500.0,12500.0,12500.0,12500.0,0,2021,9,29,3,18899
12500.0,12500.0,12500.0,12500.0,0,2021,9,30,4,18900
12500.0,12500.0,12500.0,12500.0,0,2021,10,1,5,18901
12500.0,12500.0,12500.0,12500.0,0,2021,10,4,1,18904
12500.0,12500.0,12500.0,12500.0,0,2021,10,5,2,18905
12500.0,12500.0,12500.0,12500.0,0,2021,10,6,3,18906
12500.0,12500.0,12500.0,12500.0,0,2021,10,7,4,18907
12500.0,12500.0,12500.0,12500.0,0,2021,10,8,5,18908
12500.0,12500.0,12500.0,12500.0,0,2021,10,11,1,18911
12500.0,12500.0,12500.0,12500.0,0,2021,10,12,2,18912
12500.0,12500.0,12500.0,12500.0,0,2021,10,13,3,18913
12500.0,12500.0,12500.0,12500.0,0,2021,10,14,4,18914
12500.0,12500.0,12500.0,12500.0,0,2021,10,15,5,18915
12500.0,12500.0,12500.0,12500.0,0,2021,10,18,1,18918
12500.0,12500.0,12500.0,12500.0,0,2021,10,19,2,18919
12500.0,12500.0,12500.0,12500.0,0,2021,10,20,3,18920
12500.0,12500.0,12500.0,12500.0,0,2021,10,21,4,18921
12500.0,12500.0,12500.0,12500.0,0,2021,10,22,5,18922
12500.0,12500.0,12500.0,12500.0,0,2021,10,25,1,18925
12500.0,12500.0,12500.0,12500.0,0,2021,10,26,2,18926
12500.0,12500.0,12500.0,12500.0,0,2021,10,27,3,18927
12500.0,12500.0,12500.0,12500.0,0,2021,10,28,4,18928
12500.0,12500.0,12500.0,12500.0,0,2021,10,29,5,18929
12500.0,12500.0,12500.0,12500.0,0,2021,11,1,1,18932
12500.0,12500.0,12500.0,12500.0,0,2021,11,2,2,18933
12500.0,12500.0,12500.0,12500.0,0,2021,11,3,3,18934
12500.0,12500.0,12500.0,12500.0,0,2021,11,4,4,18935
12500.0,12500.0,12500.0,12500.0,0,2021,11,5,5,18936
12500.0,12500.0,12500.0,12500.0,0,2021,11,8,1,18939
12500.0,12500.0,12500.0,12500.0,0,2021,11,9,2,18940
12500.0,12500.0,12500.0,12500.0,0,2021,11,10,3,18941
12500.0,12500.0,12500.0,12500.0,0,2021,11,11,4,18942
12500.0,12500.0,12500.0,12500.0,0,2021,11,12,5,18943
12500.0,12500.0,12500.0,12500.0,0,2021,11,15,1,18946
12500.0,12500.0,12500.0,12500.0,0,2021,11,16,2,18947
12500.0,12500.0,12500.0,12500.0,0,2021,11,17,3,18948
12500.0,12500.0,12500.0,12500.0,0,2021,11,18,4,18949
12500.0,12500.0,12500.0,12500.0,0,2021,11,19,5,18950
12501.0,12501.0,12501.0,12500.0,0,2021,11,22,1,18953
12501.0,12501.0,12501.0,12500.0,0,2021,11,23,2,18954
12501.0,12501.0,12501.0,12500.0,0,2021,11,24,3,18955
12501.0,12501.0,12501.0,12500.0,0,2021,11,25,4,18956
12501.0,12501.0,12501.0,12500.0,0,2021,11,26,5,18957
12501.0,12501.0,12501.0,12500.0,0,2021,11,29,1,18960
12501.0,12501.0,12501.0,12500.0,0,2021,11,30,2,18961
12501.0,12501.0,12501.0,12500.0,0,2021,12,1,3,18962
12501.0,12501.0,12501.0,12500.0,0,2021,12,2,4,18963
12501.0,12501.0,12501.0,12500.0,0,2021,12,3,5,18964
12501.0,12501.0,12501.0,12500.0,0,2021,12,6,1,18967
12501.0,12501.0,12501.0,12500.0,0,2021,12,7,2,18968
12501.0,12501.0,12501.0,12500.0,0,2021,12,8,3,18969
12501.0,12501.0,12501.0,12500.0,0,2021,12,9,4,18970
12501.0,12501.0,12501.0,12500.0,0,2021,12,10,5,18971
12501.0,12501.0,12501.0,12500.0,0,2021,12,13,1,18974
12501.0,12501.0,12501.0,12500.0,0,2021,12,14,2,18975
12501.0,12501.0,12501.0,12500.0,0,2021,12,15,3,18976
12501.0,12501.0,12501.0,12500.0,0,2021,12,16,4,18977
12501.0,12501.0,12501.0,12500.0,0,2021,12,17,5,18978
12501.0,12501.0,12501.0,12500.0,0,2021,12,20,1,18981
12501.0,12501.0,12501.0,12500.0,0,2021,12,21,2,18982
12501.0,12501.0,12501.0,12500.0,0,2021,12,22,3,18983
12501.0,12501.0,12501.0,12500.0,0,2021,12,23,4,18984
12501.0,12501.0,12501.0,12500.0,0,2021,12,24,5,18985
12501.0,12501.0,12501.0,12500.0,0,2021,12,27,1,18988
12501.0,12501.0,12501.0,12500.0,0,2021,12,28,2,18989
12501.0,12501.0,12501.0,12500.0,0,2021,12,29,3,18990
12501.0,12501.0,12501.0,12500.0,0,2021,12,30,4,18991
12501.0,12501.0,12501.0,12500.0,0,2021,12,31,5,18992
12501.0,12501.0,12501.0,12500.0,0,2022,1,4,2,18996
12501.0,12501.0,12501.0,12500.0,0,2022,1,5,3,18997
12501.0,12501.0,12501.0,12500.0,0,2022,1,6,4,18998
12501.0,12501.0,12501.0,12500.0,0,2022,1,7,5,18999
12501.0,12501.0,12501.0,12500.0,0,2022,1,10,1,19002
12501.0,12501.0,12501.0,12500.0,0,2022,1,11,2,19003
12501.0,12501.0,12501.0,12500.0,0,2022,1,12,3,19004
12501.0,12501.0,12501.0,12500.0,0,2022,1,13,4,19005
12501.0,12501.0,12501.0,12500.0,0,2022,1,14,5,19006
12501.0,12501.0,12501.0,12500.0,0,2022,1,17,1,19009
12501.0,12501.0,12501.0,12500.0,0,2022,1,18,2,19010
12501.0,12501.0,12501.0,12500.0,0,2022,1,19,3,19011
12501.0,12501.0,12501.0,12500.0,0,2022,1,20,4,19012
12501.0,12501.0,12501.0,12500.0,0,2022,1,21,5,19013
12501.0,12501.0,12501.0,12500.0,0,2022,1,24,1,19016
12501.0,12501.0,12501.0,12500.0,0,2022,1,25,2,19017
12501.0,12501.0,12501.0,12500.0,0,2022,1,26,3,19018
12501.0,12501.0,12501.0,12500.0,0,2022,1,27,4,19019
12501.0,12501.0,12501.0,12500.0,0,2022,1,28,5,19020
12501.0,12501.0,12501.0,12500.0,0,2022,2,7,1,19030
12501.0,12501.0,12501.0,12500.0,0,2022,2,8,2,19031
12501.0,12501.0,12501.0,12500.0,0,2022,2,9,3,19032
12501.0,12501.0,12501.0,12500.0,0,2022,2,10,4,19033
12501.0,12501.0,12501.0,12500.0,0,2022,2,11,5,19034
12501.0,12501.0,12501.0,12500.0,0,2022,2,14,1,19037
12501.0,12501.0,12501.0,12500.0,0,2022,2,15,2,19038
12501.0,12501.0,12501.0,12500.0,0,2022,2,16,3,19039
12501.0,12501.0,12501.0,12500.0,0,2022,2,17,4,19040
12501.0,12501.0,12501.0,12500.0,0,2022,2,18,5,19041
12501.0,12501.0,12501.0,12500.0,0,2022,2,21,1,19044
12501.0,12501.0,12501.0,12500.0,0,2022,2,22,2,19045
12501.0,12501.0,12501.0,12500.0,0,2022,2,23,3,19046
12501.0,12501.0,12501.0,12500.0,0,2022,2,24,4,19047
12501.0,12501.0,12501.0,12500.0,0,2022,2,25,5,19048
12501.0,12501.0,12501.0,12500.0,0,2022,2,28,1,19051
12501.0,12501.0,12501.0,12500.0,0,2022,3,1,2,19052
12501.0,12501.0,12501.0,12500.0,0,2022,3,2,3,19053
12501.0,12501.0,12501.0,12500.0,0,2022,3,3,4,19054
12501.0,12501.0,12501.0,12500.0,0,2022,3,4,5,19055
12501.0,12501.0,12501.0,12500.0,0,2022,3,7,1,19058
12501.0,12501.0,12501.0,12500.0,0,2022,3,8,2,19059
12501.0,12501.0,12501.0,12500.0,0,2022,3,9,3,19060
12501.0,12501.0,12501.0,12500.0,0,2022,3,10,4,19061
12501.0,12501.0,12501.0,12500.0,0,2022,3,11,5,19062
12501.0,12501.0,12501.0,12500.0,0,2022,3,14,1,19065
12501.0,12501.0,12501.0,12500.0,0,2022,3,15,2,19066
12501.0,12501.0,12501.0,12500.0,0,2022,3,16,3,19067
12501.0,12501.0,12501.0,12500.0,0,2022,3,17,4,19068
12501.0,12501.0,12501.0,12500.0,0,2022,3,18,5,19069
12501.0,12501.0,12501.0,12500.0,0,2022,3,21,1,19072
12501.0,12501.0,12501.0,12500.0,0,2022,3,22,2,19073
12501.0,12501.0,12501.0,12500.0,0,2022,3,23,3,19074
12501.0,12501.0,12501.0,12500.0,0,2022,3,24,4,19075
12501.0,12501.0,12501.0,12500.0,0,2022,3,25,5,19076
12501.0,12501.0,12501.0,12500.0,0,2022,3,28,1,19079
12501.0,12501.0,12501.0,12500.0,0,2022,3,29,2,19080
12501.0,12501.0,12501.0,12500.0,0,2022,3,30,3,19081
12501.0,12501.0,12501.0,12500.0,0,2022,3,31,4,19082
12501.0,12501.0,12501.0,12500.0,0,2022,4,1,5,19083
12501.0,12501.0,12501.0,12500.0,0,2022,4,4,1,19086
12501.0,12501.0,12501.0,12500.0,0,2022,4,5,2,19087
12501.0,12501.0,12501.0,12500.0,0,2022,4,6,3,19088
12501.0,12501.0,12501.0,12500.0,0,2022,4,7,4,19089
12501.0,12501.0,12501.0,12500.0,200,2022,4,8,5,19090
12501.0,12501.0,12501.0,12500.0,0,2022,4,12,2,19094
12501.0,12501.0,12501.0,12500.0,0,2022,4,13,3,19095
12501.0,12501.0,12501.0,12500.0,0,2022,4,14,4,19096
12501.0,12501.0,12501.0,12500.0,0,2022,4,15,5,19097
12501.0,12501.0,12501.0,12500.0,0,2022,4,18,1,19100
12501.0,12501.0,12501.0,12500.0,0,2022,4,19,2,19101
12501.0,12501.0,12501.0,12500.0,0,2022,4,20,3,19102
12501.0,12501.0,12501.0,12500.0,0,2022,4,21,4,19103
12501.0,12501.0,12501.0,12500.0,0,2022,4,22,5,19104
12501.0,12501.0,12501.0,12500.0,0,2022,4,25,1,19107
12501.0,12501.0,12501.0,12500.0,0,2022,4,26,2,19108
12501.0,12501.0,12501.0,12500.0,0,2022,4,27,3,19109
12501.0,12501.0,12501.0,12500.0,0,2022,4,28,4,19110
12501.0,12501.0,12501.0,12500.0,0,2022,4,29,5,19111
12501.0,12501.0,12501.0,12500.0,0,2022,5,4,3,19116
12501.0,12501.0,12501.0,12500.0,0,2022,5,5,4,19117
12501.0,12501.0,12501.0,12500.0,0,2022,5,6,5,19118
12501.0,12501.0,12501.0,12500.0,0,2022,5,9,1,19121
12501.0,12501.0,12501.0,12500.0,0,2022,5,10,2,19122
12501.0,12501.0,12501.0,12500.0,0,2022,5,11,3,19123
12501.0,12501.0,12501.0,12500.0,0,2022,5,12,4,19124
12501.0,12501.0,12501.0,12500.0,0,2022,5,13,5,19125
12501.0,12501.0,12501.0,12500.0,0,2022,5,16,1,19128
12501.0,12501.0,12501.0,12500.0,0,2022,5,17,2,19129
12501.0,12501.0,12501.0,12500.0,0,2022,5,18,3,19130
12501.0,12501.0,12501.0,12500.0,0,2022,5,19,4,19131
12501.0,12501.0,12501.0,12500.0,0,2022,5,20,5,19132
12501.0,12501.0,12501.0,12500.0,0,2022,5,23,1,19135
12501.0,12501.0,12501.0,12500.0,0,2022,5,24,2,19136
12501.0,12501.0,12501.0,12500.0,0,2022,5,25,3,19137
12501.0,12501.0,12501.0,12500.0,0,2022,5,26,4,19138
12501.0,12501.0,12501.0,12500.0,0,2022,5,27,5,19139
12501.0,12501.0,12501.0,12500.0,0,2022,5,30,1,19142
12501.0,12501.0,12501.0,12500.0,0,2022,5,31,2,19143
12501.0,12501.0,12501.0,12500.0,0,2022,6,1,3,19144
12501.0,12501.0,12501.0,12500.0,0,2022,6,2,4,19145
12501.0,12501.0,12501.0,12500.0,0,2022,6,3,5,19146
12501.0,12501.0,12501.0,12500.0,0,2022,6,6,1,19149
12501.0,12501.0,12501.0,12500.0,0,2022,6,7,2,19150
12501.0,12501.0,12501.0,12500.0,0,2022,6,8,3,19151
12501.0,12501.0,12501.0,12500.0,0,2022,6,9,4,19152
12501.0,12501.0,12501.0,12500.0,0,2022,6,10,5,19153
12501.0,12501.0,12501.0,12500.0,0,2022,6,13,1,19156
12501.0,12501.0,12501.0,12500.0,0,2022,6,14,2,19157
12501.0,12501.0,12501.0,12500.0,0,2022,6,15,3,19158
12501.0,12501.0,12501.0,12500.0,0,2022,6,16,4,19159
12501.0,12501.0,12501.0,12500.0,0,2022,6,17,5,19160
12501.0,12501.0,12501.0,12500.0,0,2022,6,20,1,19163
12501.0,12501.0,12501.0,12500.0,0,2022,6,21,2,19164
12501.0,12501.0,12501.0,12500.0,0,2022,6,22,3,19165
12501.0,12501.0,12501.0,12500.0,0,2022,6,23,4,19166
12501.0,12501.0,12501.0,12500.0,0,2022,6,24,5,19167
12501.0,12501.0,12501.0,12500.0,0,2022,6,27,1,19170
12501.0,12501.0,12501.0,12500.0,0,2022,6,28,2,19171
12501.0,12501.0,12501.0,12500.0,0,2022,6,29,3,19172
12501.0,12501.0,12501.0,12500.0,0,2022,6,30,4,19173
12501.0,12501.0,12501.0,12500.0,0,2022,7,1,5,19174
12501.0,12501.0,12501.0,12500.0,0,2022,7,4,1,19177
12501.0,12501.0,12501.0,12500.0,0,2022,7,5,2,19178
12501.0,12501.0,12501.0,12500.0,0,2022,7,6,3,19179
12501.0,12501.0,12501.0,12500.0,0,2022,7,7,4,19180
12501.0,12501.0,12501.0,12500.0,0,2022,7,8,5,19181
12501.0,12501.0,12501.0,12500.0,0,2022,7,11,1,19184
12501.0,12501.0,12501.0,12500.0,0,2022,7,12,2,19185
12501.0,12501.0,12501.0,12500.0,0,2022,7,13,3,19186
12501.0,12501.0,12501.0,12500.0,0,2022,7,14,4,19187
12500.0,12500.0,12500.0,12500.0,0,2022,7,15,5,19188
12500.0,12500.0,12500.0,12500.0,0,2022,7,18,1,19191
12500.0,12500.0,12500.0,12500.0,0,2022,7,19,2,19192
12500.0,12500.0,12500.0,12500.0,0,2022,7,20,3,19193
12500.0,12500.0,12500.0,12500.0,0,2022,7,21,4,19194
12600.0,12600.0,12600.0,12600.0,22255,2022,7,22,5,19195
12600.0,12600.0,12600.0,12600.0,0,2022,7,25,1,19198
12600.0,12600.0,12600.0,12600.0,0,2022,7,26,2,19199
12600.0,12600.0,12600.0,12600.0,0,2022,7,27,3,19200
12600.0,12600.0,12600.0,12600.0,0,2022,7,28,4,19201
12600.0,12600.0,12600.0,12600.0,0,2022,7,29,5,19202
12600.0,12600.0,12600.0,12600.0,0,2022,8,1,1,19205
12600.0,12600.0,12600.0,12600.0,0,2022,8,2,2,19206
12600.0,12600.0,12600.0,12600.0,0,2022,8,3,3,19207
12600.0,12600.0,12600.0,12600.0,0,2022,8,4,4,19208
12600.0,12600.0,12600.0,12600.0,0,2022,8,5,5,19209
12600.0,12600.0,12600.0,12600.0,0,2022,8,8,1,19212
12600.0,12600.0,12600.0,12600.0,0,2022,8,9,2,19213
12600.0,12600.0,12600.0,12600.0,0,2022,8,10,3,19214
12600.0,12600.0,12600.0,12600.0,0,2022,8,11,4,19215
12600.0,12600.0,12600.0,12600.0,0,2022,8,12,5,19216
12600.0,12600.0,12600.0,12600.0,0,2022,8,15,1,19219
12600.0,12600.0,12600.0,12600.0,0,2022,8,16,2,19220
12600.0,12600.0,12600.0,12600.0,0,2022,8,17,3,19221
12600.0,12600.0,12600.0,12600.0,0,2022,8,18,4,19222
12600.0,12600.0,12600.0,12600.0,0,2022,8,19,5,19223
12600.0,12600.0,12600.0,12600.0,0,2022,8,22,1,19226
12600.0,12600.0,12600.0,12600.0,0,2022,8,23,2,19227
12600.0,12600.0,12600.0,12600.0,0,2022,8,24,3,19228
12600.0,12600.0,12600.0,12600.0,0,2022,8,25,4,19229
12600.0,12600.0,12600.0,12600.0,0,2022,8,26,5,19230
12600.0,12600.0,12600.0,12600.0,0,2022,8,29,1,19233
12600.0,12600.0,12600.0,12600.0,0,2022,8,30,2,19234
12600.0,12600.0,12600.0,12600.0,0,2022,8,31,3,19235
12600.0,12600.0,12600.0,12600.0,0,2022,9,5,1,19240
14400.0,14400.0,14400.0,14400.0,27820,2022,9,6,2,19241
14400.0,14400.0,14400.0,14400.0,0,2022,9,7,3,19242
14400.0,14400.0,14400.0,14400.0,0,2022,9,8,4,19243
16500.0,16500.0,16500.0,16500.0,100,2022,9,9,5,19244
16500.0,16500.0,16500.0,16500.0,0,2022,9,12,1,19247
16500.0,16500.0,16500.0,16500.0,0,2022,9,13,2,19248
16500.0,16500.0,16500.0,16500.0,0,2022,9,14,3,19249
16500.0,16500.0,16500.0,16500.0,0,2022,9,15,4,19250
16500.0,16500.0,16500.0,16500.0,0,2022,9,16,5,19251
16500.0,16500.0,16500.0,16500.0,0,2022,9,19,1,19254
16500.0,16500.0,16500.0,16500.0,0,2022,9,20,2,19255
16500.0,16500.0,16500.0,16500.0,0,2022,9,21,3,19256
16500.0,16500.0,16500.0,16500.0,0,2022,9,22,4,19257
16500.0,16500.0,16500.0,16500.0,0,2022,9,23,5,19258
16500.0,16500.0,16500.0,16500.0,0,2022,9,26,1,19261
16500.0,16500.0,16500.0,16500.0,0,2022,9,27,2,19262
16500.0,16500.0,16500.0,16500.0,0,2022,9,28,3,19263
16500.0,16500.0,16500.0,16500.0,0,2022,9,29,4,19264
16500.0,16500.0,16500.0,16500.0,0,2022,9,30,5,19265
16500.0,16500.0,16500.0,16500.0,0,2022,10,3,1,19268
16500.0,16500.0,16500.0,16500.0,0,2022,10,4,2,19269
16500.0,16500.0,16500.0,16500.0,0,2022,10,5,3,19270
16500.0,16500.0,16500.0,16500.0,0,2022,10,6,4,19271
16500.0,16500.0,16500.0,16500.0,0,2022,10,7,5,19272
16500.0,16500.0,16500.0,16500.0,0,2022,10,10,1,19275
16500.0,16500.0,16500.0,16500.0,0,2022,10,11,2,19276
16500.0,16500.0,16500.0,16500.0,0,2022,10,12,3,19277
16500.0,16500.0,16500.0,16500.0,0,2022,10,13,4,19278
16500.0,16500.0,16500.0,16500.0,0,2022,10,14,5,19279
16500.0,16500.0,16500.0,16500.0,0,2022,10,17,1,19282
16500.0,16500.0,16500.0,16500.0,0,2022,10,18,2,19283
16500.0,16500.0,16500.0,16500.0,0,2022,10,19,3,19284
16500.0,16500.0,16500.0,16500.0,0,2022,10,20,4,19285
16500.0,16500.0,16500.0,16500.0,0,2022,10,21,5,19286
16500.0,16500.0,16500.0,16500.0,0,2022,10,24,1,19289
16500.0,16500.0,16500.0,16500.0,0,2022,10,25,2,19290
16500.0,16500.0,16500.0,16500.0,0,2022,10,26,3,19291
16500.0,16500.0,16500.0,16500.0,0,2022,10,27,4,19292
16500.0,16500.0,16500.0,16500.0,0,2022,10,28,5,19293
16500.0,16500.0,16500.0,16500.0,0,2022,10,31,1,19296
16500.0,16500.0,16500.0,16500.0,0,2022,11,1,2,19297
16500.0,16500.0,16500.0,16500.0,0,2022,11,2,3,19298
16500.0,16500.0,16500.0,16500.0,0,2022,11,3,4,19299
16500.0,16500.0,16500.0,16500.0,0,2022,11,4,5,19300
16500.0,16500.0,16500.0,16500.0,0,2022,11,7,1,19303
16500.0,16500.0,16500.0,16500.0,0,2022,11,8,2,19304
16500.0,16500.0,16500.0,16500.0,0,2022,11,9,3,19305
16500.0,16500.0,16500.0,16500.0,0,2022,11,10,4,19306
16500.0,16500.0,16500.0,16500.0,0,2022,11,11,5,19307
16500.0,16500.0,16500.0,16500.0,0,2022,11,14,1,19310
16500.0,16500.0,16500.0,16500.0,0,2022,11,15,2,19311
16500.0,16500.0,16500.0,16500.0,0,2022,11,16,3,19312
16500.0,16500.0,16500.0,16500.0,0,2022,11,17,4,19313
16500.0,16500.0,16500.0,16500.0,0,2022,11,18,5,19314
16500.0,16500.0,16500.0,16500.0,0,2022,11,21,1,19317
16500.0,16500.0,16500.0,16500.0,0,2022,11,22,2,19318
16500.0,16500.0,16500.0,16500.0,0,2022,11,23,3,19319
16500.0,16500.0,16500.0,16500.0,0,2022,11,24,4,19320
16500.0,16500.0,16500.0,16500.0,0,2022,11,25,5,19321
23000.0,23000.0,23000.0,23000.0,100,2022,11,28,1,19324
23000.0,23000.0,23000.0,23000.0,0,2022,11,29,2,19325
26000.0,26000.0,26000.0,26000.0,100,2022,11,30,3,19326
26000.0,26000.0,26000.0,26000.0,0,2022,12,1,4,19327
26000.0,26000.0,26000.0,26000.0,0,2022,12,2,5,19328
26000.0,26000.0,26000.0,26000.0,0,2022,12,5,1,19331
26000.0,26000.0,26000.0,26000.0,0,2022,12,6,2,19332
26000.0,26000.0,26000.0,26000.0,0,2022,12,7,3,19333
26000.0,26000.0,26000.0,26000.0,0,2022,12,8,4,19334
26000.0,26000.0,26000.0,26000.0,0,2022,12,9,5,19335
26000.0,26000.0,26000.0,26000.0,0,2022,12,12,1,19338
26000.0,26000.0,26000.0,26000.0,0,2022,12,13,2,19339
26000.0,26000.0,26000.0,26000.0,0,2022,12,14,3,19340
26000.0,26000.0,26000.0,26000.0,0,2022,12,15,4,19341
26000.0,26000.0,26000.0,26000.0,0,2022,12,16,5,19342
26000.0,29000.0,26000.0,27200.0,34000,2022,12,19,1,19345
27200.0,27200.0,27200.0,27200.0,0,2022,12,20,2,19346
27200.0,27200.0,27200.0,27200.0,0,2022,12,21,3,19347
27200.0,27200.0,27200.0,27200.0,0,2022,12,22,4,19348
27200.0,27200.0,27200.0,27200.0,0,2022,12,23,5,19349
27200.0,27200.0,27200.0,27200.0,0,2022,12,26,1,19352
27200.0,27200.0,27200.0,27200.0,0,2022,12,27,2,19353
27200.0,27200.0,27200.0,27200.0,0,2022,12,28,3,19354
27200.0,27200.0,27200.0,27200.0,0,2022,12,29,4,19355
27200.0,27200.0,27200.0,27200.0,0,2022,12,30,5,19356
27200.0,27200.0,27200.0,27200.0,0,2023,1,3,2,19360
27200.0,27200.0,27200.0,27200.0,0,2023,1,4,3,19361
27200.0,27200.0,27200.0,27200.0,0,2023,1,5,4,19362
31200.0,31200.0,31200.0,31200.0,100,2023,1,6,5,19363
31200.0,31200.0,31200.0,31200.0,0,2023,1,9,1,19366
31200.0,31200.0,31200.0,31200.0,0,2023,1,10,2,19367
31200.0,31200.0,31200.0,31200.0,0,2023,1,11,3,19368
31200.0,31200.0,31200.0,31200.0,0,2023,1,12,4,19369
31200.0,31200.0,31200.0,31200.0,0,2023,1,13,5,19370
31200.0,31200.0,31200.0,31200.0,0,2023,1,16,1,19373
31200.0,31200.0,31200.0,31200.0,0,2023,1,17,2,19374
31200.0,31200.0,31200.0,31200.0,0,2023,1,18,3,19375
31200.0,31200.0,31200.0,31200.0,0,2023,1,19,4,19376
31200.0,31200.0,31200.0,31200.0,0,2023,1,27,5,19384
31200.0,31200.0,31200.0,31200.0,0,2023,1,30,1,19387
31200.0,31200.0,31200.0,31200.0,0,2023,1,31,2,19388
31200.0,31200.0,31200.0,31200.0,100,2023,2,1,3,19389
31200.0,31200.0,31200.0,31200.0,0,2023,2,2,4,19390
31200.0,31200.0,31200.0,31200.0,0,2023,2,3,5,19391
31200.0,31200.0,31200.0,31200.0,0,2023,2,6,1,19394
31200.0,31200.0,31200.0,31200.0,0,2023,2,7,2,19395
31200.0,31200.0,31200.0,31200.0,0,2023,2,8,3,19396
31200.0,31200.0,31200.0,31200.0,0,2023,2,9,4,19397
31200.0,31200.0,31200.0,31200.0,0,2023,2,10,5,19398
31200.0,31200.0,31200.0,31200.0,0,2023,2,13,1,19401
31200.0,31200.0,31200.0,31200.0,0,2023,2,14,2,19402
31200.0,31200.0,31200.0,31200.0,0,2023,2,15,3,19403
31200.0,31200.0,31200.0,31200.0,0,2023,2,16,4,19404
31200.0,31200.0,31200.0,31200.0,0,2023,2,17,5,19405
31200.0,31200.0,31200.0,31200.0,0,2023,2,20,1,19408
31200.0,31200.0,31200.0,31200.0,0,2023,2,21,2,19409
31200.0,31200.0,31200.0,31200.0,0,2023,2,22,3,19410
31200.0,31200.0,31200.0,31200.0,0,2023,2,23,4,19411
31200.0,31200.0,31200.0,31200.0,0,2023,2,24,5,19412
31200.0,31200.0,31200.0,31200.0,0,2023,2,27,1,19415
31200.0,31200.0,31200.0,31200.0,0,2023,2,28,2,19416
