low,high,open,close,volume,year,month,day,weekday,days
1.6796879768371582,1.75,0.0,1.6875,164800,1980,3,17,1,3728
1.6328129768371582,1.6875,0.0,1.65625,188800,1980,3,18,2,3729
1.6640629768371582,1.6875,0.0,1.6796879768371582,84800,1980,3,19,3,3730
1.6484379768371582,1.6875,0.0,1.6875,328000,1980,3,20,4,3731
1.6640629768371582,1.6796879768371582,0.0,1.6640629768371582,249600,1980,3,21,5,3732
1.640625,1.6796879768371582,0.0,1.6796879768371582,142400,1980,3,24,1,3735
1.6640629768371582,1.6875,0.0,1.6640629768371582,249600,1980,3,25,2,3736
1.6484379768371582,1.6875,0.0,1.65625,228800,1980,3,26,3,3737
1.640625,1.65625,0.0,1.6484379768371582,268800,1980,3,27,4,3738
1.6484379768371582,1.671875,0.0,1.65625,132800,1980,3,28,5,3739
1.671875,1.796875,0.0,1.796875,363200,1980,3,31,1,3742
1.75,1.8046879768371582,0.0,1.765625,276800,1980,4,1,2,3743
1.7109379768371582,1.765625,0.0,1.7109379768371582,86400,1980,4,2,3,3744
1.6953129768371582,1.7265629768371582,0.0,1.71875,156800,1980,4,3,4,3745
1.6875,1.71875,0.0,1.6953129768371582,195200,1980,4,7,1,3749
1.6875,1.71875,0.0,1.7109379768371582,414400,1980,4,8,2,3750
1.6796879768371582,1.7109379768371582,0.0,1.6875,432000,1980,4,9,3,3751
1.6796879768371582,1.703125,0.0,1.6875,544000,1980,4,10,4,3752
1.6953129768371582,1.734375,0.0,1.734375,372800,1980,4,11,5,3753
1.7265629768371582,1.75,0.0,1.734375,107200,1980,4,14,1,3756
1.7265629768371582,1.75,0.0,1.7265629768371582,110400,1980,4,15,2,3757
1.734375,1.75,0.0,1.734375,316800,1980,4,16,3,3758
1.734375,1.75,0.0,1.734375,108800,1980,4,17,4,3759
1.734375,1.75,0.0,1.7421879768371582,96000,1980,4,18,5,3760
1.734375,1.7421879768371582,0.0,1.734375,128000,1980,4,21,1,3763
1.7265629768371582,1.765625,0.0,1.765625,99200,1980,4,22,2,3764
1.765625,1.796875,0.0,1.765625,123200,1980,4,23,3,3765
1.78125,1.8125,0.0,1.7890629768371582,152000,1980,4,24,4,3766
1.7734379768371582,1.8125,0.0,1.8046879768371582,67200,1980,4,25,5,3767
1.765625,1.8046879768371582,0.0,1.78125,361600,1980,4,28,1,3770
1.7890629768371582,1.8359379768371582,0.0,1.8125,164800,1980,4,29,2,3771
1.796875,1.84375,0.0,1.8359379768371582,152000,1980,4,30,3,3772
1.8203129768371582,1.8671879768371582,0.0,1.859375,312000,1980,5,1,4,3773
1.875,1.953125,0.0,1.9453129768371582,476800,1980,5,2,5,3774
1.90625,1.9296879768371582,0.0,1.9296879768371582,828800,1980,5,5,1,3777
1.8828129768371582,1.90625,0.0,1.8828129768371582,216000,1980,5,6,2,3778
1.8671879768371582,1.90625,0.0,1.890625,209600,1980,5,7,3,3779
1.8984379768371582,1.9140629768371582,0.0,1.8984379768371582,158400,1980,5,8,4,3780
1.8671879768371582,1.8984379768371582,0.0,1.8671879768371582,129600,1980,5,9,5,3781
1.8671879768371582,1.875,0.0,1.8671879768371582,190400,1980,5,12,1,3784
1.859375,1.875,0.0,1.875,70400,1980,5,13,2,3785
1.859375,1.875,0.0,1.875,129600,1980,5,14,3,3786
1.8125,1.875,0.0,1.859375,240000,1980,5,15,4,3787
1.765625,1.84375,0.0,1.765625,120000,1980,5,16,5,3788
1.765625,1.7890629768371582,0.0,1.7890629768371582,148800,1980,5,19,1,3791
1.7890629768371582,1.8359379768371582,0.0,1.8359379768371582,158400,1980,5,20,2,3792
1.8203129768371582,1.8671879768371582,0.0,1.8359379768371582,532800,1980,5,21,3,3793
1.796875,1.828125,0.0,1.828125,571200,1980,5,22,4,3794
1.796875,1.828125,0.0,1.828125,224000,1980,5,23,5,3795
1.8125,1.8671879768371582,0.0,1.828125,316800,1980,5,27,2,3799
1.8359379768371582,1.8671879768371582,0.0,1.8671879768371582,542400,1980,5,28,3,3800
1.8515629768371582,1.875,0.0,1.8515629768371582,187200,1980,5,29,4,3801
1.84375,1.890625,0.0,1.890625,227200,1980,5,30,5,3802
1.875,1.90625,0.0,1.890625,192000,1980,6,2,1,3805
1.90625,1.953125,0.0,1.921875,320000,1980,6,3,2,3806
1.921875,1.953125,0.0,1.9296879768371582,123200,1980,6,4,3,3807
1.9375,2.0,0.0,1.96875,467200,1980,6,5,4,3808
1.9375,1.96875,0.0,1.9375,120000,1980,6,6,5,3809
1.9296879768371582,1.953125,0.0,1.9375,83200,1980,6,9,1,3812
1.953125,1.9921879768371582,0.0,1.9921879768371582,203200,1980,6,10,2,3813
1.9765629768371582,1.9921879768371582,0.0,1.9921879768371582,70400,1980,6,11,3,3814
1.9609379768371582,1.984375,0.0,1.96875,128000,1980,6,12,4,3815
1.953125,1.984375,0.0,1.984375,176000,1980,6,13,5,3816
1.953125,1.984375,0.0,1.9765629768371582,251200,1980,6,16,1,3819
1.953125,1.9765629768371582,0.0,1.953125,155200,1980,6,17,2,3820
1.9453129768371582,1.9609379768371582,0.0,1.9609379768371582,147200,1980,6,18,3,3821
1.9375,1.9609379768371582,0.0,1.9375,187200,1980,6,19,4,3822
1.9375,1.9609379768371582,0.0,1.953125,300800,1980,6,20,5,3823
1.9375,1.953125,0.0,1.9375,128000,1980,6,23,1,3826
1.9375,1.953125,0.0,1.9375,452800,1980,6,24,2,3827
1.9375,1.9609379768371582,0.0,1.9609379768371582,142400,1980,6,25,3,3828
1.9296879768371582,1.953125,0.0,1.9375,152000,1980,6,26,4,3829
1.9296879768371582,1.9375,0.0,1.9375,737600,1980,6,27,5,3830
1.84375,1.9375,0.0,1.875,265600,1980,6,30,1,3833
1.84375,1.890625,0.0,1.890625,1777600,1980,7,1,2,3834
1.875,1.890625,0.0,1.8828129768371582,489600,1980,7,2,3,3835
1.890625,1.921875,0.0,1.8984379768371582,136000,1980,7,3,4,3836
1.9140629768371582,1.9375,0.0,1.921875,193600,1980,7,7,1,3840
1.9375,1.953125,0.0,1.953125,206400,1980,7,8,2,3841
1.9375,1.9921879768371582,0.0,1.9921879768371582,321600,1980,7,9,3,3842
1.96875,2.023437976837158,0.0,2.0,627200,1980,7,10,4,3843
1.984375,2.015625,0.0,2.015625,158400,1980,7,11,5,3844
2.0,2.054687976837158,0.0,2.054687976837158,190400,1980,7,14,1,3847
2.046875,2.078125,0.0,2.070312976837158,291200,1980,7,15,2,3848
2.046875,2.070312976837158,0.0,2.070312976837158,859200,1980,7,16,3,3849
2.0625,2.085937976837158,0.0,2.078125,480000,1980,7,17,4,3850
2.070312976837158,2.148437976837158,0.0,2.132812976837158,652800,1980,7,18,5,3851
2.132812976837158,2.15625,0.0,2.15625,268800,1980,7,21,1,3854
2.148437976837158,2.171875,0.0,2.148437976837158,350400,1980,7,22,2,3855
2.125,2.15625,0.0,2.125,280000,1980,7,23,3,3856
2.125,2.140625,0.0,2.140625,332800,1980,7,24,4,3857
2.125,2.140625,0.0,2.132812976837158,121600,1980,7,25,5,3858
2.125,2.140625,0.0,2.140625,355200,1980,7,28,1,3861
2.132812976837158,2.171875,0.0,2.171875,188800,1980,7,29,2,3862
2.1875,2.195312976837158,0.0,2.195312976837158,1552000,1980,7,30,3,3863
2.1875,2.210937976837158,0.0,2.210937976837158,1233600,1980,7,31,4,3864
2.21875,2.234375,0.0,2.226562976837158,305600,1980,8,1,5,3865
2.21875,2.273437976837158,0.0,2.273437976837158,1603200,1980,8,4,1,3868
2.226562976837158,2.265625,0.0,2.25,1168000,1980,8,5,2,3869
2.242187976837158,2.289062976837158,0.0,2.289062976837158,254400,1980,8,6,3,3870
2.25,2.273437976837158,0.0,2.257812976837158,276800,1980,8,7,4,3871
2.257812976837158,2.28125,0.0,2.273437976837158,598400,1980,8,8,5,3872
2.25,2.257812976837158,0.0,2.257812976837158,259200,1980,8,11,1,3875
2.25,2.3125,0.0,2.273437976837158,1137600,1980,8,12,2,3876
2.257812976837158,2.296875,0.0,2.265625,140800,1980,8,13,3,3877
2.25,2.265625,0.0,2.265625,126400,1980,8,14,4,3878
2.257812976837158,2.289062976837158,0.0,2.257812976837158,195200,1980,8,15,5,3879
2.203125,2.25,0.0,2.203125,299200,1980,8,18,1,3882
2.171875,2.203125,0.0,2.179687976837158,622400,1980,8,19,2,3883
2.148437976837158,2.195312976837158,0.0,2.195312976837158,259200,1980,8,20,3,3884
2.25,2.28125,0.0,2.265625,745600,1980,8,21,4,3885
2.257812976837158,2.28125,0.0,2.265625,195200,1980,8,22,5,3886
2.25,2.265625,0.0,2.25,91200,1980,8,25,1,3889
2.25,2.28125,0.0,2.265625,254400,1980,8,26,2,3890
2.21875,2.257812976837158,0.0,2.21875,336000,1980,8,27,3,3891
2.171875,2.203125,0.0,2.171875,212800,1980,8,28,4,3892
2.15625,2.1875,0.0,2.171875,740800,1980,8,29,5,3893
2.171875,2.195312976837158,0.0,2.1875,155200,1980,9,2,2,3897
2.171875,2.265625,0.0,2.25,1081600,1980,9,3,3,3898
2.234375,2.273437976837158,0.0,2.25,416000,1980,9,4,4,3899
2.234375,2.257812976837158,0.0,2.257812976837158,731200,1980,9,5,5,3900
2.242187976837158,2.265625,0.0,2.242187976837158,100800,1980,9,8,1,3903
2.234375,2.242187976837158,0.0,2.242187976837158,91200,1980,9,9,2,3904
2.234375,2.242187976837158,0.0,2.234375,83200,1980,9,10,3,3905
2.234375,2.25,0.0,2.25,60800,1980,9,11,4,3906
2.242187976837158,2.265625,0.0,2.265625,128000,1980,9,12,5,3907
2.25,2.273437976837158,0.0,2.25,236800,1980,9,15,1,3910
2.25,2.265625,0.0,2.265625,96000,1980,9,16,2,3911
2.25,2.335937976837158,0.0,2.328125,1672000,1980,9,17,3,3912
2.335937976837158,2.367187976837158,0.0,2.34375,201600,1980,9,18,4,3913
2.335937976837158,2.351562976837158,0.0,2.34375,124800,1980,9,19,5,3914
2.34375,2.359375,0.0,2.351562976837158,264000,1980,9,22,1,3917
2.335937976837158,2.375,0.0,2.351562976837158,488000,1980,9,23,2,3918
2.328125,2.335937976837158,0.0,2.328125,148800,1980,9,24,3,3919
2.296875,2.328125,0.0,2.304687976837158,265600,1980,9,25,4,3920
2.273437976837158,2.304687976837158,0.0,2.289062976837158,352000,1980,9,26,5,3921
2.265625,2.28125,0.0,2.28125,428800,1980,9,29,1,3924
2.265625,2.289062976837158,0.0,2.289062976837158,124800,1980,9,30,2,3925
2.257812976837158,2.28125,0.0,2.257812976837158,100800,1980,10,1,3,3926
2.25,2.273437976837158,0.0,2.273437976837158,585600,1980,10,2,4,3927
2.265625,2.289062976837158,0.0,2.28125,180800,1980,10,3,5,3928
2.265625,2.296875,0.0,2.265625,121600,1980,10,6,1,3931
2.25,2.265625,0.0,2.25,459200,1980,10,7,2,3932
2.242187976837158,2.28125,0.0,2.28125,817600,1980,10,8,3,3933
2.25,2.28125,0.0,2.265625,443200,1980,10,9,4,3934
2.203125,2.234375,0.0,2.226562976837158,796800,1980,10,10,5,3935
2.210937976837158,2.226562976837158,0.0,2.226562976837158,97600,1980,10,13,1,3938
2.203125,2.25,0.0,2.203125,224000,1980,10,14,2,3939
2.1875,2.203125,0.0,2.195312976837158,113600,1980,10,15,3,3940
2.171875,2.203125,0.0,2.1875,425600,1980,10,16,4,3941
2.15625,2.1875,0.0,2.1875,300800,1980,10,17,5,3942
2.164062976837158,2.1875,0.0,2.1875,150400,1980,10,20,1,3945
2.1875,2.25,0.0,2.25,566400,1980,10,21,2,3946
2.210937976837158,2.273437976837158,0.0,2.234375,172800,1980,10,22,3,3947
2.234375,2.265625,0.0,2.25,336000,1980,10,23,4,3948
2.234375,2.265625,0.0,2.265625,168000,1980,10,24,5,3949
2.234375,2.25,0.0,2.25,521600,1980,10,27,1,3952
2.234375,2.265625,0.0,2.257812976837158,376000,1980,10,28,2,3953
2.25,2.265625,0.0,2.265625,251200,1980,10,29,3,3954
2.257812976837158,2.273437976837158,0.0,2.265625,156800,1980,10,30,4,3955
2.25,2.265625,0.0,2.265625,243200,1980,10,31,5,3956
2.226562976837158,2.28125,0.0,2.28125,1062400,1980,11,3,1,3959
2.273437976837158,2.359375,0.0,2.28125,1062400,1980,11,5,3,3961
2.28125,2.3125,0.0,2.296875,531200,1980,11,6,4,3962
2.28125,2.296875,0.0,2.28125,579200,1980,11,7,5,3963
2.257812976837158,2.28125,0.0,2.273437976837158,180800,1980,11,10,1,3966
2.265625,2.28125,0.0,2.265625,867200,1980,11,11,2,3967
2.25,2.28125,0.0,2.273437976837158,281600,1980,11,12,3,3968
2.257812976837158,2.28125,0.0,2.273437976837158,1980800,1980,11,13,4,3969
2.273437976837158,2.304687976837158,0.0,2.304687976837158,702400,1980,11,14,5,3970
2.289062976837158,2.34375,0.0,2.328125,1176000,1980,11,17,1,3973
2.328125,2.351562976837158,0.0,2.335937976837158,164800,1980,11,18,2,3974
2.320312976837158,2.367187976837158,0.0,2.359375,241600,1980,11,19,3,3975
2.34375,2.421875,0.0,2.398437976837158,377600,1980,11,20,4,3976
2.3125,2.398437976837158,0.0,2.359375,209600,1980,11,21,5,3977
2.296875,2.382812976837158,0.0,2.34375,243200,1980,11,24,1,3980
2.296875,2.351562976837158,0.0,2.3125,179200,1980,11,25,2,3981
2.195312976837158,2.265625,0.0,2.203125,377600,1980,11,26,3,3982
2.171875,2.203125,0.0,2.1875,323200,1980,11,28,5,3984
2.179687976837158,2.203125,0.0,2.1875,152000,1980,12,1,1,3987
2.171875,2.203125,0.0,2.203125,244800,1980,12,2,2,3988
2.1875,2.25,0.0,2.25,182400,1980,12,3,3,3989
2.21875,2.265625,0.0,2.25,643200,1980,12,4,4,3990
2.234375,2.25,0.0,2.242187976837158,235200,1980,12,5,5,3991
2.1875,2.21875,0.0,2.203125,385600,1980,12,8,1,3994
2.1875,2.203125,0.0,2.1875,528000,1980,12,9,2,3995
2.1875,2.234375,0.0,2.195312976837158,206400,1980,12,10,3,3996
2.15625,2.203125,0.0,2.15625,456000,1980,12,11,4,3997
2.148437976837158,2.171875,0.0,2.15625,57600,1980,12,12,5,3998
2.117187976837158,2.148437976837158,0.0,2.117187976837158,472000,1980,12,15,1,4001
2.046875,2.101562976837158,0.0,2.0625,131200,1980,12,16,2,4002
2.070312976837158,2.101562976837158,0.0,2.085937976837158,276800,1980,12,17,3,4003
2.0625,2.078125,0.0,2.070312976837158,168000,1980,12,18,4,4004
2.0625,2.140625,0.0,2.140625,504000,1980,12,19,5,4005
2.125,2.164062976837158,0.0,2.164062976837158,384000,1980,12,22,1,4008
2.140625,2.1875,0.0,2.15625,184000,1980,12,23,2,4009
2.132812976837158,2.242187976837158,0.0,2.242187976837158,1203200,1980,12,24,3,4010
2.226562976837158,2.265625,0.0,2.25,97600,1980,12,26,5,4012
2.234375,2.304687976837158,0.0,2.265625,324800,1980,12,29,1,4015
2.234375,2.328125,0.0,2.328125,1240000,1980,12,30,2,4016
2.320312976837158,2.546875,0.0,2.546875,928000,1980,12,31,3,4017
2.5,2.546875,0.0,2.546875,483200,1981,1,2,5,4019
2.5,2.601562976837158,0.0,2.515625,1252800,1981,1,5,1,4022
2.40625,2.5,0.0,2.421875,296000,1981,1,6,2,4023
2.25,2.375,0.0,2.359375,540800,1981,1,7,3,4024
2.21875,2.367187976837158,0.0,2.296875,680000,1981,1,8,4,4025
2.289062976837158,2.398437976837158,0.0,2.398437976837158,1307200,1981,1,9,5,4026
2.4375,2.554687976837158,0.0,2.53125,1108800,1981,1,12,1,4029
2.5,2.53125,0.0,2.515625,276800,1981,1,13,2,4030
2.5,2.578125,0.0,2.523437976837158,1025600,1981,1,14,3,4031
2.5,2.53125,0.0,2.515625,310400,1981,1,15,4,4032
2.507812976837158,2.640625,0.0,2.640625,820800,1981,1,16,5,4033
2.578125,2.65625,0.0,2.625,768000,1981,1,19,1,4036
2.640625,2.671875,0.0,2.664062976837158,822400,1981,1,20,2,4037
2.625,2.703125,0.0,2.6875,2556800,1981,1,21,3,4038
2.609375,2.765625,0.0,2.640625,1601600,1981,1,22,4,4039
2.578125,2.640625,0.0,2.625,1859200,1981,1,23,5,4040
2.5625,2.601562976837158,0.0,2.5625,329600,1981,1,26,1,4043
2.5625,2.59375,0.0,2.585937976837158,753600,1981,1,27,2,4044
2.578125,2.648437976837158,0.0,2.625,358400,1981,1,28,3,4045
2.625,2.6875,0.0,2.65625,262400,1981,1,29,4,4046
2.640625,2.695312976837158,0.0,2.664062976837158,358400,1981,1,30,5,4047
2.578125,2.648437976837158,0.0,2.59375,187200,1981,2,2,1,4050
2.578125,2.640625,0.0,2.625,313600,1981,2,3,2,4051
2.570312976837158,2.65625,0.0,2.578125,601600,1981,2,4,3,4052
2.570312976837158,2.625,0.0,2.625,201600,1981,2,5,4,4053
2.625,2.71875,0.0,2.710937976837158,532800,1981,2,6,5,4054
2.664062976837158,2.71875,0.0,2.703125,464000,1981,2,9,1,4057
2.6875,2.71875,0.0,2.703125,472000,1981,2,10,2,4058
2.65625,2.703125,0.0,2.6875,617600,1981,2,11,3,4059
2.625,2.679687976837158,0.0,2.679687976837158,196800,1981,2,12,4,4060
2.609375,2.671875,0.0,2.640625,156800,1981,2,13,5,4061
2.601562976837158,2.65625,0.0,2.609375,345600,1981,2,17,2,4065
2.5625,2.640625,0.0,2.59375,428800,1981,2,18,3,4066
2.53125,2.59375,0.0,2.546875,601600,1981,2,19,4,4067
2.539062976837158,2.554687976837158,0.0,2.546875,329600,1981,2,20,5,4068
2.546875,2.585937976837158,0.0,2.585937976837158,427200,1981,2,23,1,4071
2.59375,2.632812976837158,0.0,2.625,334400,1981,2,24,2,4072
2.609375,2.9375,0.0,2.9375,4424000,1981,2,25,3,4073
2.875,3.09375,0.0,3.046875,5041600,1981,2,26,4,4074
2.992187976837158,3.15625,0.0,3.15625,3398400,1981,2,27,5,4075
3.140625,3.234375,0.0,3.210937976837158,3272000,1981,3,2,1,4078
3.09375,3.234375,0.0,3.148437976837158,3803200,1981,3,3,2,4079
3.0625,3.125,0.0,3.125,1982400,1981,3,4,3,4080
2.984375,3.117187976837158,0.0,3.0,1225600,1981,3,5,4,4081
2.890625,3.039062976837158,0.0,3.03125,1899200,1981,3,6,5,4082
2.96875,3.0625,0.0,3.0625,712000,1981,3,9,1,4085
2.9375,3.046875,0.0,2.960937976837158,497600,1981,3,10,2,4086
2.914062976837158,2.984375,0.0,2.96875,1625600,1981,3,11,3,4087
2.9375,3.09375,0.0,3.078125,1329600,1981,3,12,4,4088
3.09375,3.140625,0.0,3.125,1672000,1981,3,13,5,4089
3.0625,3.140625,0.0,3.109375,566400,1981,3,16,1,4092
3.117187976837158,3.1875,0.0,3.164062976837158,2062400,1981,3,17,2,4093
3.125,3.296875,0.0,3.21875,1782400,1981,3,18,3,4094
3.171875,3.265625,0.0,3.171875,648000,1981,3,19,4,4095
3.15625,3.25,0.0,3.195312976837158,884800,1981,3,20,5,4096
3.171875,3.234375,0.0,3.21875,368000,1981,3,23,1,4099
3.125,3.25,0.0,3.179687976837158,760000,1981,3,24,2,4100
3.171875,3.492187976837158,0.0,3.453125,6833600,1981,3,25,3,4101
3.34375,3.46875,0.0,3.34375,2190400,1981,3,26,4,4102
3.328125,3.460937976837158,0.0,3.390625,1571200,1981,3,27,5,4103
3.28125,3.398437976837158,0.0,3.28125,1011200,1981,3,30,1,4106
3.328125,3.398437976837158,0.0,3.382812976837158,1208000,1981,3,31,2,4107
3.335937976837158,3.4375,0.0,3.40625,1326400,1981,4,1,3,4108
3.28125,3.421875,0.0,3.359375,723200,1981,4,2,4,4109
3.28125,3.367187976837158,0.0,3.296875,817600,1981,4,3,5,4110
3.3125,3.609375,0.0,3.609375,2217600,1981,4,6,1,4113
3.515625,3.640625,0.0,3.546875,2635200,1981,4,7,2,4114
3.46875,3.585937976837158,0.0,3.484375,968000,1981,4,8,3,4115
3.46875,3.5625,0.0,3.515625,2723200,1981,4,9,4,4116
3.46875,3.5625,0.0,3.5625,1227200,1981,4,10,5,4117
3.5625,3.609375,0.0,3.578125,1553600,1981,4,13,1,4120
3.484375,3.5625,0.0,3.5,555200,1981,4,14,2,4121
3.4375,3.507812976837158,0.0,3.492187976837158,665600,1981,4,15,3,4122
3.476562976837158,3.523437976837158,0.0,3.523437976837158,716800,1981,4,16,4,4123
3.492187976837158,3.53125,0.0,3.515625,400000,1981,4,20,1,4127
3.296875,3.523437976837158,0.0,3.296875,1460800,1981,4,21,2,4128
3.28125,3.367187976837158,0.0,3.320312976837158,824000,1981,4,22,3,4129
3.3125,3.421875,0.0,3.382812976837158,907200,1981,4,23,4,4130
3.34375,3.421875,0.0,3.40625,995200,1981,4,24,5,4131
3.375,3.453125,0.0,3.40625,1088000,1981,4,27,1,4134
3.234375,3.390625,0.0,3.289062976837158,592000,1981,4,28,2,4135
3.15625,3.25,0.0,3.179687976837158,633600,1981,4,29,3,4136
3.164062976837158,3.210937976837158,0.0,3.1875,756800,1981,4,30,4,4137
3.171875,3.296875,0.0,3.25,1225600,1981,5,1,5,4138
3.171875,3.25,0.0,3.195312976837158,536000,1981,5,4,1,4141
3.09375,3.140625,0.0,3.101562976837158,937600,1981,5,5,2,4142
3.109375,3.15625,0.0,3.117187976837158,716800,1981,5,6,3,4143
3.109375,3.203125,0.0,3.1875,876800,1981,5,7,4,4144
3.164062976837158,3.203125,0.0,3.1875,827200,1981,5,8,5,4145
3.101562976837158,3.210937976837158,0.0,3.101562976837158,372800,1981,5,11,1,4148
3.0625,3.109375,0.0,3.078125,782400,1981,5,12,2,4149
3.046875,3.125,0.0,3.09375,374400,1981,5,13,3,4150
3.078125,3.203125,0.0,3.125,1054400,1981,5,14,4,4151
3.109375,3.15625,0.0,3.140625,748800,1981,5,15,5,4152
3.117187976837158,3.148437976837158,0.0,3.132812976837158,348800,1981,5,18,1,4155
3.125,3.203125,0.0,3.1875,654400,1981,5,19,2,4156
3.203125,3.40625,0.0,3.398437976837158,1464000,1981,5,20,3,4157
3.320312976837158,3.398437976837158,0.0,3.375,801600,1981,5,21,4,4158
3.296875,3.367187976837158,0.0,3.328125,388800,1981,5,22,5,4159
3.289062976837158,3.328125,0.0,3.328125,444800,1981,5,26,2,4163
3.265625,3.359375,0.0,3.273437976837158,400000,1981,5,27,3,4164
3.234375,3.296875,0.0,3.234375,273600,1981,5,28,4,4165
3.171875,3.21875,0.0,3.203125,212800,1981,5,29,5,4166
3.140625,3.242187976837158,0.0,3.140625,1132800,1981,6,1,1,4169
3.0,3.125,0.0,3.0625,675200,1981,6,2,2,4170
2.9375,3.046875,0.0,2.960937976837158,411200,1981,6,3,3,4171
2.945312976837158,2.976562976837158,0.0,2.96875,344000,1981,6,4,4,4172
2.921875,3.039062976837158,0.0,3.03125,1054400,1981,6,5,5,4173
3.015625,3.078125,0.0,3.03125,347200,1981,6,8,1,4176
3.0,3.078125,0.0,3.046875,750400,1981,6,9,2,4177
3.0,3.085937976837158,0.0,3.0625,369600,1981,6,10,3,4178
3.078125,3.15625,0.0,3.15625,139200,1981,6,11,4,4179
3.085937976837158,3.140625,0.0,3.09375,171200,1981,6,12,5,4180
3.078125,3.140625,0.0,3.140625,233600,1981,6,15,1,4183
3.101562976837158,3.132812976837158,0.0,3.109375,150400,1981,6,16,2,4184
3.054687976837158,3.09375,0.0,3.078125,256000,1981,6,17,3,4185
3.007812976837158,3.078125,0.0,3.015625,185600,1981,6,18,4,4186
2.9375,3.0,0.0,2.953125,196800,1981,6,19,5,4187
2.9375,2.984375,0.0,2.960937976837158,363200,1981,6,22,1,4190
2.945312976837158,2.992187976837158,0.0,2.96875,195200,1981,6,23,2,4191
2.90625,2.976562976837158,0.0,2.9375,224000,1981,6,24,3,4192
2.921875,2.960937976837158,0.0,2.9375,192000,1981,6,25,4,4193
2.828125,2.929687976837158,0.0,2.875,332800,1981,6,26,5,4194
2.875,2.921875,0.0,2.914062976837158,454400,1981,6,29,1,4197
2.914062976837158,2.960937976837158,0.0,2.9375,284800,1981,6,30,2,4198
2.921875,2.953125,0.0,2.945312976837158,190400,1981,7,1,3,4199
2.921875,2.953125,0.0,2.9375,67200,1981,7,2,4,4200
2.890625,2.929687976837158,0.0,2.90625,198400,1981,7,6,1,4204
2.796875,2.898437976837158,0.0,2.804687976837158,302400,1981,7,7,2,4205
2.742187976837158,2.8125,0.0,2.765625,870400,1981,7,8,3,4206
2.71875,2.75,0.0,2.75,662400,1981,7,9,4,4207
2.710937976837158,2.757812976837158,0.0,2.71875,360000,1981,7,10,5,4208
2.6875,2.726562976837158,0.0,2.695312976837158,428800,1981,7,13,1,4211
2.6875,2.710937976837158,0.0,2.703125,577600,1981,7,14,2,4212
2.695312976837158,2.875,0.0,2.796875,2560000,1981,7,15,3,4213
2.796875,2.835937976837158,0.0,2.835937976837158,1044800,1981,7,16,4,4214
2.828125,2.898437976837158,0.0,2.84375,542400,1981,7,17,5,4215
2.75,2.84375,0.0,2.765625,889600,1981,7,20,1,4218
2.742187976837158,2.8125,0.0,2.742187976837158,651200,1981,7,21,2,4219
2.703125,2.765625,0.0,2.703125,379200,1981,7,22,3,4220
2.671875,2.757812976837158,0.0,2.726562976837158,664000,1981,7,23,4,4221
2.71875,2.765625,0.0,2.75,174400,1981,7,24,5,4222
2.71875,2.78125,0.0,2.71875,350400,1981,7,27,1,4225
2.703125,2.78125,0.0,2.78125,1201600,1981,7,28,2,4226
2.78125,2.835937976837158,0.0,2.796875,1441600,1981,7,29,3,4227
2.773437976837158,2.820312976837158,0.0,2.789062976837158,329600,1981,7,30,4,4228
2.78125,2.8125,0.0,2.78125,241600,1981,7,31,5,4229
2.773437976837158,2.8125,0.0,2.796875,460800,1981,8,3,1,4232
2.757812976837158,2.8125,0.0,2.796875,310400,1981,8,4,2,4233
2.796875,2.890625,0.0,2.890625,454400,1981,8,5,3,4234
2.859375,2.945312976837158,0.0,2.875,1337600,1981,8,6,4,4235
2.835937976837158,2.890625,0.0,2.851562976837158,129600,1981,8,7,5,4236
2.835937976837158,2.875,0.0,2.875,798400,1981,8,10,1,4239
2.890625,2.96875,0.0,2.953125,822400,1981,8,11,2,4240
2.875,2.984375,0.0,2.882812976837158,324800,1981,8,12,3,4241
2.835937976837158,2.875,0.0,2.859375,112000,1981,8,13,4,4242
2.851562976837158,2.929687976837158,0.0,2.90625,268800,1981,8,14,5,4243
2.851562976837158,2.921875,0.0,2.882812976837158,265600,1981,8,17,1,4246
2.8125,2.882812976837158,0.0,2.835937976837158,1198400,1981,8,18,2,4247
2.828125,2.859375,0.0,2.859375,326400,1981,8,19,3,4248
2.851562976837158,2.867187976837158,0.0,2.851562976837158,166400,1981,8,20,4,4249
2.828125,2.859375,0.0,2.835937976837158,675200,1981,8,21,5,4250
2.828125,2.851562976837158,0.0,2.851562976837158,747200,1981,8,24,1,4253
2.835937976837158,2.898437976837158,0.0,2.882812976837158,464000,1981,8,25,2,4254
2.867187976837158,2.890625,0.0,2.867187976837158,120000,1981,8,26,3,4255
2.867187976837158,2.875,0.0,2.867187976837158,112000,1981,8,27,4,4256
2.867187976837158,2.875,0.0,2.867187976837158,248000,1981,8,28,5,4257
2.859375,2.867187976837158,0.0,2.859375,196800,1981,8,31,1,4260
2.867187976837158,2.875,0.0,2.867187976837158,342400,1981,9,1,2,4261
2.875,2.898437976837158,0.0,2.882812976837158,153600,1981,9,2,3,4262
2.859375,2.890625,0.0,2.859375,315200,1981,9,3,4,4263
2.796875,2.84375,0.0,2.8125,465600,1981,9,4,5,4264
2.65625,2.789062976837158,0.0,2.695312976837158,449600,1981,9,8,2,4268
2.664062976837158,2.703125,0.0,2.6875,278400,1981,9,9,3,4269
2.6875,2.757812976837158,0.0,2.726562976837158,217600,1981,9,10,4,4270
2.6875,2.726562976837158,0.0,2.703125,230400,1981,9,11,5,4271
2.695312976837158,2.71875,0.0,2.710937976837158,393600,1981,9,14,1,4274
2.703125,2.75,0.0,2.703125,355200,1981,9,15,2,4275
2.703125,2.734375,0.0,2.734375,403200,1981,9,16,3,4276
2.710937976837158,2.734375,0.0,2.710937976837158,89600,1981,9,17,4,4277
2.632812976837158,2.703125,0.0,2.640625,1006400,1981,9,18,5,4278
2.640625,2.648437976837158,0.0,2.648437976837158,283200,1981,9,21,1,4281
2.632812976837158,2.648437976837158,0.0,2.648437976837158,240000,1981,9,22,2,4282
2.59375,2.625,0.0,2.609375,523200,1981,9,23,3,4283
2.578125,2.640625,0.0,2.59375,484800,1981,9,24,4,4284
2.460937976837158,2.59375,0.0,2.46875,366400,1981,9,25,5,4285
2.390625,2.546875,0.0,2.546875,694400,1981,9,28,1,4288
2.5625,2.625,0.0,2.5625,737600,1981,9,29,2,4289
2.5,2.554687976837158,0.0,2.515625,313600,1981,9,30,3,4290
2.453125,2.523437976837158,0.0,2.492187976837158,964800,1981,10,1,4,4291
2.476562976837158,2.523437976837158,0.0,2.523437976837158,2206400,1981,10,2,5,4292
2.476562976837158,2.53125,0.0,2.492187976837158,516800,1981,10,5,1,4295
2.421875,2.492187976837158,0.0,2.4375,513600,1981,10,6,2,4296
2.40625,2.4375,0.0,2.421875,182400,1981,10,7,3,4297
2.40625,2.460937976837158,0.0,2.453125,644800,1981,10,8,4,4298
2.421875,2.453125,0.0,2.4375,329600,1981,10,9,5,4299
2.414062976837158,2.4375,0.0,2.4375,387200,1981,10,12,1,4302
2.421875,2.445312976837158,0.0,2.429687976837158,110400,1981,10,13,2,4303
2.421875,2.4375,0.0,2.421875,70400,1981,10,14,3,4304
2.421875,2.4375,0.0,2.429687976837158,132800,1981,10,15,4,4305
2.429687976837158,2.453125,0.0,2.429687976837158,1144000,1981,10,16,5,4306
2.414062976837158,2.445312976837158,0.0,2.445312976837158,216000,1981,10,19,1,4309
2.390625,2.421875,0.0,2.390625,1475200,1981,10,20,2,4310
2.375,2.414062976837158,0.0,2.390625,419200,1981,10,21,3,4311
2.3125,2.382812976837158,0.0,2.34375,283200,1981,10,22,4,4312
2.289062976837158,2.359375,0.0,2.296875,372800,1981,10,23,5,4313
2.289062976837158,2.328125,0.0,2.304687976837158,108800,1981,10,26,1,4316
2.304687976837158,2.367187976837158,0.0,2.351562976837158,153600,1981,10,27,2,4317
2.351562976837158,2.421875,0.0,2.382812976837158,648000,1981,10,28,3,4318
2.351562976837158,2.382812976837158,0.0,2.359375,318400,1981,10,29,4,4319
2.351562976837158,2.390625,0.0,2.390625,491200,1981,10,30,5,4320
2.414062976837158,2.46875,0.0,2.4375,1241600,1981,11,2,1,4323
2.445312976837158,2.53125,0.0,2.53125,411200,1981,11,3,2,4324
2.5,2.53125,0.0,2.507812976837158,1062400,1981,11,4,3,4325
2.507812976837158,2.5625,0.0,2.546875,451200,1981,11,5,4,4326
2.515625,2.570312976837158,0.0,2.5625,161600,1981,11,6,5,4327
2.539062976837158,2.570312976837158,0.0,2.570312976837158,91200,1981,11,9,1,4330
2.59375,2.617187976837158,0.0,2.59375,137600,1981,11,10,2,4331
2.59375,2.617187976837158,0.0,2.617187976837158,331200,1981,11,11,3,4332
2.59375,2.640625,0.0,2.609375,236800,1981,11,12,4,4333
2.53125,2.59375,0.0,2.554687976837158,358400,1981,11,13,5,4334
2.453125,2.53125,0.0,2.476562976837158,284800,1981,11,16,1,4337
2.46875,2.5,0.0,2.492187976837158,500800,1981,11,17,2,4338
2.46875,2.5,0.0,2.46875,926400,1981,11,18,3,4339
2.460937976837158,2.484375,0.0,2.476562976837158,518400,1981,11,19,4,4340
2.476562976837158,2.5,0.0,2.5,86400,1981,11,20,5,4341
2.445312976837158,2.492187976837158,0.0,2.460937976837158,190400,1981,11,23,1,4344
2.445312976837158,2.46875,0.0,2.460937976837158,150400,1981,11,24,2,4345
2.445312976837158,2.484375,0.0,2.453125,1275200,1981,11,25,3,4346
2.453125,2.476562976837158,0.0,2.476562976837158,196800,1981,11,27,5,4348
2.460937976837158,2.53125,0.0,2.515625,275200,1981,11,30,1,4351
2.453125,2.523437976837158,0.0,2.484375,657600,1981,12,1,2,4352
2.445312976837158,2.507812976837158,0.0,2.484375,364800,1981,12,2,3,4353
2.476562976837158,2.515625,0.0,2.515625,422400,1981,12,3,4,4354
2.5,2.53125,0.0,2.515625,1816000,1981,12,4,5,4355
2.46875,2.53125,0.0,2.492187976837158,400000,1981,12,7,1,4358
2.460937976837158,2.492187976837158,0.0,2.46875,201600,1981,12,8,2,4359
2.460937976837158,2.492187976837158,0.0,2.484375,347200,1981,12,9,3,4360
2.460937976837158,2.5,0.0,2.492187976837158,403200,1981,12,10,4,4361
2.484375,2.515625,0.0,2.515625,281600,1981,12,11,5,4362
2.4375,2.492187976837158,0.0,2.453125,860800,1981,12,14,1,4365
2.390625,2.453125,0.0,2.445312976837158,264000,1981,12,15,2,4366
2.4375,2.453125,0.0,2.445312976837158,113600,1981,12,16,3,4367
2.4375,2.453125,0.0,2.4375,363200,1981,12,17,4,4368
2.421875,2.445312976837158,0.0,2.421875,209600,1981,12,18,5,4369
2.375,2.4375,0.0,2.375,670400,1981,12,21,1,4372
2.359375,2.390625,0.0,2.375,240000,1981,12,22,2,4373
2.351562976837158,2.382812976837158,0.0,2.375,388800,1981,12,23,3,4374
2.367187976837158,2.382812976837158,0.0,2.382812976837158,520000,1981,12,24,4,4375
2.3125,2.375,0.0,2.3125,1014400,1981,12,28,1,4379
2.3125,2.328125,0.0,2.3125,248000,1981,12,29,2,4380
2.3125,2.335937976837158,0.0,2.328125,195200,1981,12,30,3,4381
2.21875,2.375,0.0,2.359375,580800,1981,12,31,4,4382
2.335937976837158,2.367187976837158,0.0,2.367187976837158,728000,1982,1,4,1,4386
2.296875,2.359375,0.0,2.328125,278400,1982,1,5,2,4387
2.289062976837158,2.328125,0.0,2.328125,336000,1982,1,6,3,4388
2.28125,2.335937976837158,0.0,2.296875,408000,1982,1,7,4,4389
2.257812976837158,2.3125,0.0,2.265625,228800,1982,1,8,5,4390
2.1875,2.265625,0.0,2.1875,5382400,1982,1,11,1,4393
2.15625,2.210937976837158,0.0,2.203125,358400,1982,1,12,2,4394
2.171875,2.21875,0.0,2.1875,507200,1982,1,13,3,4395
2.15625,2.179687976837158,0.0,2.179687976837158,177600,1982,1,14,4,4396
2.140625,2.1875,0.0,2.15625,291200,1982,1,15,5,4397
2.0,2.132812976837158,0.0,2.0625,10244800,1982,1,18,1,4400
2.039062976837158,2.085937976837158,0.0,2.054687976837158,312000,1982,1,19,2,4401
2.023437976837158,2.0625,0.0,2.046875,492800,1982,1,20,3,4402
2.023437976837158,2.046875,0.0,2.046875,321600,1982,1,21,4,4403
2.0,2.03125,0.0,2.03125,1499200,1982,1,22,5,4404
2.0,2.03125,0.0,2.015625,403200,1982,1,25,1,4407
1.96875,2.015625,0.0,2.0,1643200,1982,1,26,2,4408
1.9921879768371582,2.007812976837158,0.0,2.007812976837158,345600,1982,1,27,3,4409
1.9921879768371582,2.039062976837158,0.0,2.039062976837158,492800,1982,1,28,4,4410
2.0625,2.09375,0.0,2.085937976837158,1184000,1982,1,29,5,4411
2.03125,2.078125,0.0,2.046875,243200,1982,2,1,1,4414
2.007812976837158,2.0625,0.0,2.0625,283200,1982,2,2,2,4415
2.039062976837158,2.070312976837158,0.0,2.070312976837158,523200,1982,2,3,3,4416
2.046875,2.078125,0.0,2.078125,222400,1982,2,4,4,4417
2.070312976837158,2.148437976837158,0.0,2.148437976837158,353600,1982,2,5,5,4418
2.078125,2.125,0.0,2.078125,721600,1982,2,8,1,4421
2.015625,2.046875,0.0,2.039062976837158,203200,1982,2,9,2,4422
2.015625,2.039062976837158,0.0,2.039062976837158,596800,1982,2,10,3,4423
1.9296879768371582,2.039062976837158,0.0,1.953125,480000,1982,2,11,4,4424
1.9375,1.9765629768371582,0.0,1.9765629768371582,304000,1982,2,12,5,4425
1.9375,1.984375,0.0,1.984375,512000,1982,2,16,2,4429
1.9609379768371582,2.0,0.0,1.9765629768371582,233600,1982,2,17,3,4430
1.9375,1.9765629768371582,0.0,1.9765629768371582,363200,1982,2,18,4,4431
1.9453129768371582,1.984375,0.0,1.96875,192000,1982,2,19,5,4432
1.9375,2.023437976837158,0.0,1.9453129768371582,1331200,1982,2,22,1,4435
1.9453129768371582,1.96875,0.0,1.9609379768371582,182400,1982,2,23,2,4436
1.921875,1.9609379768371582,0.0,1.953125,2142400,1982,2,24,3,4437
1.953125,1.9765629768371582,0.0,1.953125,889600,1982,2,25,4,4438
1.9453129768371582,1.96875,0.0,1.9609379768371582,939200,1982,2,26,5,4439
1.9375,1.96875,0.0,1.9375,419200,1982,3,1,1,4442
1.921875,1.953125,0.0,1.9296879768371582,336000,1982,3,2,2,4443
1.890625,1.9296879768371582,0.0,1.90625,409600,1982,3,3,3,4444
1.8828129768371582,1.921875,0.0,1.890625,235200,1982,3,4,4,4445
1.875,1.90625,0.0,1.875,265600,1982,3,5,5,4446
1.84375,1.8828129768371582,0.0,1.84375,560000,1982,3,8,1,4449
1.8125,1.8515629768371582,0.0,1.828125,1928000,1982,3,9,2,4450
1.8203129768371582,1.859375,0.0,1.859375,656000,1982,3,10,3,4451
1.84375,1.9375,0.0,1.9375,712000,1982,3,11,4,4452
1.90625,1.9609379768371582,0.0,1.9609379768371582,336000,1982,3,12,5,4453
1.9453129768371582,2.0,0.0,1.9921879768371582,176000,1982,3,15,1,4456
1.9765629768371582,2.007812976837158,0.0,2.007812976837158,998400,1982,3,16,2,4457
1.96875,2.023437976837158,0.0,2.0,952000,1982,3,17,3,4458
1.9375,2.0,0.0,1.96875,616000,1982,3,18,4,4459
1.9375,1.96875,0.0,1.96875,812800,1982,3,19,5,4460
1.9375,1.96875,0.0,1.9609379768371582,342400,1982,3,22,1,4463
1.9609379768371582,2.015625,0.0,1.9921879768371582,1097600,1982,3,23,2,4464
2.0,2.03125,0.0,2.015625,291200,1982,3,24,3,4465
1.96875,2.0,0.0,1.9921879768371582,1993600,1982,3,25,4,4466
1.953125,1.9921879768371582,0.0,1.9609379768371582,265600,1982,3,26,5,4467
1.9609379768371582,1.984375,0.0,1.984375,44800,1982,3,29,1,4470
1.9765629768371582,2.007812976837158,0.0,1.9921879768371582,248000,1982,3,30,2,4471
1.96875,1.984375,0.0,1.9765629768371582,72000,1982,3,31,3,4472
1.96875,2.0,0.0,2.0,228800,1982,4,1,4,4473
1.9765629768371582,2.015625,0.0,2.007812976837158,385600,1982,4,2,5,4474
2.0,2.03125,0.0,2.007812976837158,372800,1982,4,5,1,4477
2.007812976837158,2.023437976837158,0.0,2.015625,211200,1982,4,6,2,4478
2.007812976837158,2.03125,0.0,2.03125,254400,1982,4,7,3,4479
2.015625,2.046875,0.0,2.023437976837158,155200,1982,4,8,4,4480
2.007812976837158,2.039062976837158,0.0,2.023437976837158,131200,1982,4,12,1,4484
2.023437976837158,2.046875,0.0,2.039062976837158,312000,1982,4,13,2,4485
2.023437976837158,2.054687976837158,0.0,2.054687976837158,408000,1982,4,14,3,4486
2.0,2.054687976837158,0.0,2.007812976837158,2214400,1982,4,15,4,4487
1.984375,2.015625,0.0,2.0,672000,1982,4,16,5,4488
1.9921879768371582,2.015625,0.0,2.015625,412800,1982,4,19,1,4491
2.0,2.015625,0.0,2.015625,228800,1982,4,20,2,4492
2.0,2.03125,0.0,2.015625,352000,1982,4,21,3,4493
2.0,2.03125,0.0,2.015625,467200,1982,4,22,4,4494
2.007812976837158,2.054687976837158,0.0,2.054687976837158,787200,1982,4,23,5,4495
2.070312976837158,2.117187976837158,0.0,2.117187976837158,516800,1982,4,26,1,4498
2.109375,2.15625,0.0,2.117187976837158,404800,1982,4,27,2,4499
2.117187976837158,2.148437976837158,0.0,2.125,116800,1982,4,28,3,4500
2.078125,2.125,0.0,2.085937976837158,249600,1982,4,29,4,4501
2.046875,2.132812976837158,0.0,2.132812976837158,862400,1982,4,30,5,4502
2.09375,2.164062976837158,0.0,2.15625,3374400,1982,5,3,1,4505
2.101562976837158,2.15625,0.0,2.117187976837158,3448000,1982,5,4,2,4506
2.09375,2.140625,0.0,2.117187976837158,745600,1982,5,5,3,4507
2.101562976837158,2.140625,0.0,2.109375,491200,1982,5,6,4,4508
2.09375,2.125,0.0,2.109375,235200,1982,5,7,5,4509
2.09375,2.125,0.0,2.101562976837158,78400,1982,5,10,1,4512
2.101562976837158,2.140625,0.0,2.132812976837158,164800,1982,5,11,2,4513
2.117187976837158,2.171875,0.0,2.140625,316800,1982,5,12,3,4514
2.0625,2.148437976837158,0.0,2.078125,2137600,1982,5,13,4,4515
2.0625,2.109375,0.0,2.109375,3348800,1982,5,14,5,4516
2.09375,2.125,0.0,2.109375,280000,1982,5,17,1,4519
2.101562976837158,2.125,0.0,2.109375,369600,1982,5,18,2,4520
2.109375,2.15625,0.0,2.125,539200,1982,5,19,3,4521
2.101562976837158,2.140625,0.0,2.140625,315200,1982,5,20,4,4522
2.09375,2.140625,0.0,2.125,737600,1982,5,21,5,4523
2.09375,2.125,0.0,2.101562976837158,81600,1982,5,24,1,4526
2.070312976837158,2.109375,0.0,2.085937976837158,195200,1982,5,25,2,4527
2.070312976837158,2.09375,0.0,2.070312976837158,376000,1982,5,26,3,4528
2.015625,2.070312976837158,0.0,2.070312976837158,241600,1982,5,27,4,4529
2.054687976837158,2.085937976837158,0.0,2.078125,100800,1982,5,28,5,4530
1.96875,2.085937976837158,0.0,1.984375,196800,1982,6,1,2,4534
1.984375,2.03125,0.0,2.03125,427200,1982,6,2,3,4535
2.0,2.078125,0.0,2.015625,928000,1982,6,3,4,4536
1.921875,2.0,0.0,1.9375,1617600,1982,6,4,5,4537
1.9140629768371582,1.953125,0.0,1.921875,307200,1982,6,7,1,4540
1.890625,1.921875,0.0,1.8984379768371582,337600,1982,6,8,2,4541
1.828125,1.890625,0.0,1.8359379768371582,2569600,1982,6,9,3,4542
1.8203129768371582,1.875,0.0,1.8671879768371582,107200,1982,6,10,4,4543
1.8984379768371582,1.9140629768371582,0.0,1.9140629768371582,646400,1982,6,11,5,4544
1.890625,1.921875,0.0,1.921875,726400,1982,6,14,1,4547
1.890625,1.921875,0.0,1.921875,846400,1982,6,15,2,4548
1.921875,1.9453129768371582,0.0,1.9375,409600,1982,6,16,3,4549
1.90625,1.9296879768371582,0.0,1.9296879768371582,161600,1982,6,17,4,4550
1.90625,1.9453129768371582,0.0,1.921875,121600,1982,6,18,5,4551
1.8828129768371582,1.921875,0.0,1.8984379768371582,140800,1982,6,21,1,4554
1.8828129768371582,1.90625,0.0,1.90625,100800,1982,6,22,2,4555
1.9140629768371582,1.9609379768371582,0.0,1.953125,182400,1982,6,23,3,4556
1.953125,1.9921879768371582,0.0,1.9609379768371582,635200,1982,6,24,4,4557
1.9453129768371582,1.984375,0.0,1.9765629768371582,168000,1982,6,25,5,4558
1.984375,2.023437976837158,0.0,2.0,752000,1982,6,28,1,4561
2.0,2.09375,0.0,2.09375,566400,1982,6,29,2,4562
2.03125,2.085937976837158,0.0,2.078125,728000,1982,6,30,3,4563
2.0625,2.085937976837158,0.0,2.085937976837158,1262400,1982,7,1,4,4564
2.070312976837158,2.078125,0.0,2.078125,228800,1982,7,2,5,4565
2.046875,2.085937976837158,0.0,2.046875,910400,1982,7,6,2,4569
2.0,2.0625,0.0,2.0,244800,1982,7,7,3,4570
2.0,2.046875,0.0,2.039062976837158,256000,1982,7,8,4,4571
2.039062976837158,2.0625,0.0,2.0625,971200,1982,7,9,5,4572
2.046875,2.09375,0.0,2.0625,321600,1982,7,12,1,4575
2.046875,2.070312976837158,0.0,2.046875,1595200,1982,7,13,2,4576
2.0,2.03125,0.0,2.015625,80000,1982,7,14,3,4577
2.0,2.046875,0.0,2.03125,219200,1982,7,15,4,4578
2.0,2.03125,0.0,2.023437976837158,1366400,1982,7,16,5,4579
2.03125,2.0625,0.0,2.046875,1960000,1982,7,19,1,4582
2.046875,2.09375,0.0,2.085937976837158,907200,1982,7,20,2,4583
2.09375,2.179687976837158,0.0,2.171875,1259200,1982,7,21,3,4584
2.164062976837158,2.21875,0.0,2.203125,206400,1982,7,22,4,4585
2.171875,2.226562976837158,0.0,2.1875,185600,1982,7,23,5,4586
2.1875,2.242187976837158,0.0,2.242187976837158,324800,1982,7,26,1,4589
2.210937976837158,2.226562976837158,0.0,2.226562976837158,184000,1982,7,27,2,4590
2.132812976837158,2.21875,0.0,2.140625,358400,1982,7,28,3,4591
2.109375,2.203125,0.0,2.203125,401600,1982,7,29,4,4592
2.195312976837158,2.226562976837158,0.0,2.226562976837158,336000,1982,7,30,5,4593
2.21875,2.28125,0.0,2.273437976837158,564800,1982,8,2,1,4596
2.234375,2.28125,0.0,2.25,1036800,1982,8,3,2,4597
2.140625,2.203125,0.0,2.148437976837158,4504000,1982,8,4,3,4598
2.09375,2.140625,0.0,2.117187976837158,241600,1982,8,5,4,4599
2.03125,2.117187976837158,0.0,2.03125,753600,1982,8,6,5,4600
2.007812976837158,2.054687976837158,0.0,2.054687976837158,225600,1982,8,9,1,4603
2.046875,2.078125,0.0,2.078125,363200,1982,8,10,2,4604
2.070312976837158,2.085937976837158,0.0,2.078125,219200,1982,8,11,3,4605
2.070312976837158,2.101562976837158,0.0,2.085937976837158,756800,1982,8,12,4,4606
2.085937976837158,2.117187976837158,0.0,2.109375,801600,1982,8,13,5,4607
2.101562976837158,2.132812976837158,0.0,2.117187976837158,670400,1982,8,16,1,4610
2.125,2.179687976837158,0.0,2.179687976837158,614400,1982,8,17,2,4611
2.25,2.34375,0.0,2.296875,2147200,1982,8,18,3,4612
2.28125,2.3125,0.0,2.3125,1566400,1982,8,19,4,4613
2.328125,2.484375,0.0,2.4375,1852800,1982,8,20,5,4614
2.414062976837158,2.5,0.0,2.421875,1672000,1982,8,23,1,4617
2.375,2.4375,0.0,2.40625,1491200,1982,8,24,2,4618
2.375,2.507812976837158,0.0,2.4375,1664000,1982,8,25,3,4619
2.40625,2.53125,0.0,2.445312976837158,1835200,1982,8,26,4,4620
2.375,2.453125,0.0,2.40625,1766400,1982,8,27,5,4621
2.40625,2.515625,0.0,2.515625,1560000,1982,8,30,1,4624
2.53125,2.59375,0.0,2.53125,1078400,1982,8,31,2,4625
2.515625,2.5625,0.0,2.515625,611200,1982,9,1,3,4626
2.390625,2.523437976837158,0.0,2.476562976837158,681600,1982,9,2,4,4627
2.492187976837158,2.554687976837158,0.0,2.539062976837158,932800,1982,9,3,5,4628
2.53125,2.5625,0.0,2.546875,1057600,1982,9,7,2,4632
2.53125,2.554687976837158,0.0,2.53125,369600,1982,9,8,3,4633
2.53125,2.554687976837158,0.0,2.53125,905600,1982,9,9,4,4634
2.445312976837158,2.53125,0.0,2.484375,1099200,1982,9,10,5,4635
2.40625,2.492187976837158,0.0,2.484375,2040000,1982,9,13,1,4638
2.476562976837158,2.539062976837158,0.0,2.484375,827200,1982,9,14,2,4639
2.453125,2.515625,0.0,2.515625,534400,1982,9,15,3,4640
2.460937976837158,2.53125,0.0,2.492187976837158,1214400,1982,9,16,4,4641
2.445312976837158,2.515625,0.0,2.46875,1208000,1982,9,17,5,4642
2.4375,2.492187976837158,0.0,2.492187976837158,584000,1982,9,20,1,4645
2.476562976837158,2.515625,0.0,2.515625,1401600,1982,9,21,2,4646
2.578125,2.617187976837158,0.0,2.585937976837158,2398400,1982,9,22,3,4647
2.539062976837158,2.5625,0.0,2.5625,457600,1982,9,23,4,4648
2.53125,2.5625,0.0,2.5625,444800,1982,9,24,5,4649
2.53125,2.5625,0.0,2.546875,627200,1982,9,27,1,4652
2.546875,2.59375,0.0,2.546875,1088000,1982,9,28,2,4653
2.5,2.5625,0.0,2.5,868800,1982,9,29,3,4654
2.421875,2.484375,0.0,2.460937976837158,380800,1982,9,30,4,4655
2.445312976837158,2.5,0.0,2.5,617600,1982,10,1,5,4656
2.476562976837158,2.515625,0.0,2.507812976837158,1147200,1982,10,4,1,4659
2.5,2.53125,0.0,2.515625,1032000,1982,10,5,2,4660
2.515625,2.570312976837158,0.0,2.5625,1368000,1982,10,6,3,4661
2.5625,2.625,0.0,2.609375,841600,1982,10,7,4,4662
2.578125,2.609375,0.0,2.59375,324800,1982,10,8,5,4663
2.585937976837158,2.640625,0.0,2.617187976837158,542400,1982,10,11,1,4666
2.625,2.679687976837158,0.0,2.679687976837158,1148800,1982,10,12,2,4667
2.671875,2.84375,0.0,2.828125,668800,1982,10,13,3,4668
2.65625,2.84375,0.0,2.65625,795200,1982,10,14,4,4669
2.59375,2.65625,0.0,2.632812976837158,521600,1982,10,15,5,4670
2.648437976837158,2.734375,0.0,2.734375,326400,1982,10,18,1,4673
2.75,2.8125,0.0,2.804687976837158,448000,1982,10,19,2,4674
2.8125,2.9375,0.0,2.875,1268800,1982,10,20,3,4675
2.914062976837158,3.023437976837158,0.0,2.96875,7321600,1982,10,21,4,4676
3.046875,3.140625,0.0,3.070312976837158,2614400,1982,10,22,5,4677
2.875,3.0625,0.0,2.890625,764800,1982,10,25,1,4680
2.828125,2.921875,0.0,2.921875,988800,1982,10,26,2,4681
2.984375,3.070312976837158,0.0,3.070312976837158,780800,1982,10,27,3,4682
3.054687976837158,3.085937976837158,0.0,3.0625,1020800,1982,10,28,4,4683
2.96875,3.070312976837158,0.0,3.007812976837158,1156800,1982,10,29,5,4684
2.945312976837158,3.007812976837158,0.0,3.0,1216000,1982,11,1,1,4687
2.976562976837158,3.039062976837158,0.0,3.015625,1259200,1982,11,2,2,4688
3.015625,3.179687976837158,0.0,3.15625,1827200,1982,11,3,3,4689
3.234375,3.351562976837158,0.0,3.25,2828800,1982,11,4,4,4690
3.09375,3.335937976837158,0.0,3.335937976837158,1425600,1982,11,5,5,4691
3.1875,3.304687976837158,0.0,3.273437976837158,732800,1982,11,8,1,4694
3.21875,3.296875,0.0,3.21875,1198400,1982,11,9,2,4695
3.21875,3.273437976837158,0.0,3.234375,739200,1982,11,10,3,4696
3.15625,3.21875,0.0,3.164062976837158,705600,1982,11,11,4,4697
3.164062976837158,3.203125,0.0,3.171875,312000,1982,11,12,5,4698
3.03125,3.171875,0.0,3.0625,1032000,1982,11,15,1,4701
3.015625,3.09375,0.0,3.0625,918400,1982,11,16,2,4702
3.078125,3.140625,0.0,3.109375,1840000,1982,11,17,3,4703
3.09375,3.148437976837158,0.0,3.140625,504000,1982,11,18,4,4704
3.109375,3.1875,0.0,3.109375,796800,1982,11,19,5,4705
3.078125,3.210937976837158,0.0,3.078125,769600,1982,11,22,1,4708
2.921875,3.125,0.0,2.921875,617600,1982,11,23,2,4709
2.9375,3.0625,0.0,3.039062976837158,529600,1982,11,24,3,4710
3.054687976837158,3.125,0.0,3.109375,344000,1982,11,26,5,4712
3.117187976837158,3.171875,0.0,3.140625,272000,1982,11,29,1,4715
3.109375,3.171875,0.0,3.140625,496000,1982,11,30,2,4716
3.1875,3.234375,0.0,3.203125,611200,1982,12,1,3,4717
3.203125,3.28125,0.0,3.234375,649600,1982,12,2,4,4718
3.1875,3.25,0.0,3.21875,412800,1982,12,3,5,4719
3.21875,3.265625,0.0,3.25,459200,1982,12,6,1,4722
3.25,3.3125,0.0,3.265625,1816000,1982,12,7,2,4723
3.21875,3.28125,0.0,3.21875,244800,1982,12,8,3,4724
3.15625,3.1875,0.0,3.15625,126400,1982,12,9,4,4725
3.078125,3.179687976837158,0.0,3.09375,145600,1982,12,10,5,4726
2.984375,3.0625,0.0,3.0,572800,1982,12,13,1,4729
3.0,3.078125,0.0,3.0,286400,1982,12,14,2,4730
2.96875,3.0,0.0,2.976562976837158,160000,1982,12,15,3,4731
2.882812976837158,2.96875,0.0,2.945312976837158,1177600,1982,12,16,4,4732
3.015625,3.09375,0.0,3.09375,291200,1982,12,17,5,4733
3.046875,3.09375,0.0,3.078125,868800,1982,12,20,1,4736
3.078125,3.109375,0.0,3.109375,160000,1982,12,21,2,4737
3.109375,3.234375,0.0,3.234375,694400,1982,12,22,3,4738
3.265625,3.3125,0.0,3.28125,291200,1982,12,23,4,4739
3.109375,3.28125,0.0,3.210937976837158,803200,1982,12,27,1,4743
3.203125,3.328125,0.0,3.296875,744000,1982,12,28,2,4744
3.234375,3.304687976837158,0.0,3.28125,473600,1982,12,29,3,4745
3.265625,3.3125,0.0,3.265625,315200,1982,12,30,4,4746
3.210937976837158,3.25,0.0,3.234375,145600,1982,12,31,5,4747
3.140625,3.171875,0.0,3.15625,499200,1983,1,3,1,4750
3.140625,3.21875,0.0,3.21875,353600,1983,1,4,2,4751
3.234375,3.296875,0.0,3.257812976837158,515200,1983,1,5,3,4752
3.265625,3.46875,0.0,3.421875,1033600,1983,1,6,4,4753
3.421875,3.609375,0.0,3.570312976837158,2430400,1983,1,7,5,4754
3.46875,3.539062976837158,0.0,3.5,899200,1983,1,10,1,4757
3.453125,3.515625,0.0,3.5,830400,1983,1,11,2,4758
3.359375,3.5,0.0,3.359375,593600,1983,1,12,3,4759
3.265625,3.390625,0.0,3.382812976837158,724800,1983,1,13,4,4760
3.28125,3.40625,0.0,3.40625,454400,1983,1,14,5,4761
3.382812976837158,3.414062976837158,0.0,3.390625,652800,1983,1,17,1,4764
3.375,3.484375,0.0,3.484375,288000,1983,1,18,2,4765
3.375,3.492187976837158,0.0,3.453125,1323200,1983,1,19,3,4766
3.328125,3.429687976837158,0.0,3.359375,425600,1983,1,20,4,4767
3.257812976837158,3.359375,0.0,3.28125,241600,1983,1,21,5,4768
3.15625,3.242187976837158,0.0,3.21875,656000,1983,1,24,1,4771
3.171875,3.296875,0.0,3.21875,332800,1983,1,25,2,4772
3.21875,3.265625,0.0,3.234375,328000,1983,1,26,3,4773
3.265625,3.40625,0.0,3.359375,484800,1983,1,27,4,4774
3.375,3.429687976837158,0.0,3.40625,462400,1983,1,28,5,4775
3.40625,3.445312976837158,0.0,3.429687976837158,1908800,1983,1,31,1,4778
3.375,3.453125,0.0,3.375,1342400,1983,2,1,2,4779
3.34375,3.398437976837158,0.0,3.375,249600,1983,2,2,3,4780
3.351562976837158,3.40625,0.0,3.390625,200000,1983,2,3,4,4781
3.34375,3.421875,0.0,3.40625,1100800,1983,2,4,5,4782
3.390625,3.460937976837158,0.0,3.421875,1614400,1983,2,7,1,4785
3.359375,3.421875,0.0,3.375,667200,1983,2,8,2,4786
3.3125,3.375,0.0,3.367187976837158,299200,1983,2,9,3,4787
3.375,3.40625,0.0,3.40625,784000,1983,2,10,4,4788
3.390625,3.414062976837158,0.0,3.40625,768000,1983,2,11,5,4789
3.390625,3.40625,0.0,3.390625,532800,1983,2,14,1,4792
3.328125,3.390625,0.0,3.34375,1260800,1983,2,15,2,4793
3.34375,3.398437976837158,0.0,3.375,881600,1983,2,16,3,4794
3.34375,3.421875,0.0,3.390625,2440000,1983,2,17,4,4795
3.375,3.421875,0.0,3.375,846400,1983,2,18,5,4796
3.375,3.40625,0.0,3.398437976837158,1120000,1983,2,22,2,4800
3.34375,3.398437976837158,0.0,3.398437976837158,1406400,1983,2,23,3,4801
3.414062976837158,3.5625,0.0,3.5625,2683200,1983,2,24,4,4802
3.53125,3.601562976837158,0.0,3.539062976837158,2368000,1983,2,25,5,4803
3.578125,3.625,0.0,3.617187976837158,1920000,1983,2,28,1,4806
3.625,3.703125,0.0,3.6875,1411200,1983,3,1,2,4807
3.695312976837158,3.75,0.0,3.742187976837158,1604800,1983,3,2,3,4808
3.71875,3.765625,0.0,3.71875,1451200,1983,3,3,4,4809
3.671875,3.734375,0.0,3.703125,840000,1983,3,4,5,4810
3.703125,3.734375,0.0,3.71875,425600,1983,3,7,1,4813
3.65625,3.734375,0.0,3.65625,1718400,1983,3,8,2,4814
3.640625,3.6875,0.0,3.671875,366400,1983,3,9,3,4815
3.6875,3.726562976837158,0.0,3.6875,595200,1983,3,10,4,4816
3.671875,3.695312976837158,0.0,3.695312976837158,548800,1983,3,11,5,4817
3.671875,3.734375,0.0,3.726562976837158,542400,1983,3,14,1,4820
3.695312976837158,3.726562976837158,0.0,3.726562976837158,740800,1983,3,15,2,4821
3.734375,3.757812976837158,0.0,3.75,1308800,1983,3,16,3,4822
3.75,3.828125,0.0,3.8125,859200,1983,3,17,4,4823
3.8125,4.0,0.0,3.984375,1619200,1983,3,18,5,4824
3.875,3.976562976837158,0.0,3.90625,937600,1983,3,21,1,4827
3.90625,3.96875,0.0,3.9375,1076800,1983,3,22,2,4828
3.921875,3.960937976837158,0.0,3.921875,940800,1983,3,23,3,4829
3.875,3.929687976837158,0.0,3.890625,536000,1983,3,24,4,4830
3.859375,3.898437976837158,0.0,3.875,564800,1983,3,25,5,4831
3.859375,3.898437976837158,0.0,3.890625,416000,1983,3,28,1,4834
3.859375,3.890625,0.0,3.859375,576000,1983,3,29,2,4835
3.789062976837158,3.867187976837158,0.0,3.820312976837158,403200,1983,3,30,3,4836
3.835937976837158,3.875,0.0,3.84375,547200,1983,3,31,4,4837
3.84375,3.875,0.0,3.859375,168000,1983,4,4,1,4841
3.84375,3.875,0.0,3.859375,947200,1983,4,5,2,4842
3.8125,3.859375,3.84375,3.84375,960000,1983,4,6,3,4843
3.828125,3.859375,3.859375,3.84375,464000,1983,4,7,4,4844
3.75,3.84375,3.84375,3.765625,219200,1983,4,8,5,4845
3.75,3.796875,3.765625,3.765625,387200,1983,4,11,1,4848
3.78125,3.828125,3.796875,3.828125,313600,1983,4,12,2,4849
3.84375,3.90625,3.84375,3.90625,401600,1983,4,13,3,4850
3.914062976837158,3.953125,3.9375,3.9375,316800,1983,4,14,4,4851
3.914062976837158,3.960937976837158,3.953125,3.914062976837158,286400,1983,4,15,5,4852
3.888672113418579,3.929687976837158,3.914062976837158,3.929687976837158,337600,1983,4,18,1,4855
3.898437976837158,3.976562976837158,3.929687976837158,3.976562976837158,494400,1983,4,19,2,4856
3.96875,3.992187976837158,3.976562976837158,3.984375,198400,1983,4,20,3,4857
3.953125,4.015625,3.984375,3.953125,465600,1983,4,21,4,4858
3.9375,4.0,3.960937976837158,3.953125,182400,1983,4,22,5,4859
3.90625,4.0,3.953125,3.96875,468800,1983,4,25,1,4862
3.96875,4.015625,3.992187976837158,4.0,272000,1983,4,26,2,4863
4.0,4.09375,4.046875,4.023437976837158,387200,1983,4,27,3,4864
4.015625,4.046875,4.03125,4.039062976837158,571200,1983,4,28,4,4865
4.039062976837158,4.085937976837158,4.0625,4.085937976837158,619200,1983,4,29,5,4866
4.046875,4.117187976837158,4.085937976837158,4.054687976837158,670400,1983,5,2,1,4869
4.0,4.039062976837158,4.023437976837158,4.039062976837158,428800,1983,5,3,2,4870
3.976562976837158,4.03125,4.007812976837158,3.992187976837158,451200,1983,5,4,3,4871
3.921875,4.007812976837158,3.96875,3.9375,740800,1983,5,5,4,4872
3.953125,4.078125,3.953125,4.046875,803200,1983,5,6,5,4873
4.0,4.0625,4.015625,4.054687976837158,553600,1983,5,9,1,4876
4.03125,4.070312976837158,4.070312976837158,4.03125,492800,1983,5,10,2,4877
4.0,4.046875,4.039062976837158,4.023437976837158,252800,1983,5,11,3,4878
3.96875,4.03125,4.023437976837158,3.976562976837158,396800,1983,5,12,4,4879
3.960937976837158,3.992187976837158,3.992187976837158,3.984375,225600,1983,5,13,5,4880
3.9375,4.0,3.96875,4.0,356800,1983,5,16,1,4883
3.976562976837158,4.015625,4.0,4.015625,288000,1983,5,17,2,4884
4.007812976837158,4.140625,4.007812976837158,4.03125,825600,1983,5,18,3,4885
3.921875,3.984375,3.984375,3.953125,1417600,1983,5,19,4,4886
3.9375,4.007812976837158,3.953125,4.007812976837158,321600,1983,5,20,5,4887
4.007812976837158,4.0625,4.015625,4.039062976837158,488000,1983,5,23,1,4890
4.046875,4.117187976837158,4.046875,4.117187976837158,355200,1983,5,24,2,4891
4.078125,4.117187976837158,4.09375,4.109375,580800,1983,5,25,3,4892
4.078125,4.25,4.09375,4.203125,1388800,1983,5,26,4,4893
4.15625,4.203125,4.203125,4.164062976837158,209600,1983,5,27,5,4894
4.078125,4.171875,4.164062976837158,4.09375,601600,1983,5,31,2,4898
4.0625,4.101562976837158,4.0625,4.101562976837158,488000,1983,6,1,3,4899
3.984375,4.117187976837158,4.109375,4.03125,366400,1983,6,2,4,4900
3.96875,4.046875,4.015625,4.03125,1065600,1983,6,3,5,4901
4.054687976837158,4.078125,4.0625,4.070312976837158,5444800,1983,6,6,1,4904
4.03125,4.085937976837158,4.085937976837158,4.046875,457600,1983,6,7,2,4905
4.007812976837158,4.054687976837158,4.046875,4.007812976837158,444800,1983,6,8,3,4906
3.984375,4.023437976837158,4.015625,4.007812976837158,427200,1983,6,9,4,4907
4.015625,4.0625,4.023437976837158,4.0625,1878400,1983,6,10,5,4908
4.0625,4.09375,4.0625,4.078125,1062400,1983,6,13,1,4911
4.078125,4.109375,4.078125,4.109375,272000,1983,6,14,2,4912
4.101562976837158,4.125,4.109375,4.117187976837158,592000,1983,6,15,3,4913
4.125,4.15625,4.125,4.15625,628800,1983,6,16,4,4914
4.125,4.164062976837158,4.15625,4.125,1081600,1983,6,17,5,4915
4.101562976837158,4.140625,4.109375,4.117187976837158,222400,1983,6,20,1,4918
4.046875,4.117187976837158,4.101562976837158,4.09375,340800,1983,6,21,2,4919
4.0625,4.109375,4.085937976837158,4.09375,435200,1983,6,22,3,4920
4.070312976837158,4.109375,4.09375,4.070312976837158,145600,1983,6,23,4,4921
4.0625,4.09375,4.070312976837158,4.09375,212800,1983,6,24,5,4922
4.0625,4.085937976837158,4.070312976837158,4.078125,609600,1983,6,27,1,4925
4.046875,4.109375,4.09375,4.046875,428800,1983,6,28,2,4926
3.9375,4.039062976837158,4.039062976837158,3.9375,1552000,1983,6,29,3,4927
3.921875,3.984375,3.9375,3.96875,534400,1983,6,30,4,4928
3.953125,4.023437976837158,3.953125,4.023437976837158,947200,1983,7,1,5,4929
3.96875,4.007812976837158,4.007812976837158,3.992187976837158,155200,1983,7,5,2,4933
3.9375,3.992187976837158,3.96875,3.984375,217600,1983,7,6,3,4934
3.921875,3.984375,3.984375,3.96875,452800,1983,7,7,4,4935
3.960937976837158,3.984375,3.96875,3.984375,152000,1983,7,8,5,4936
3.976562976837158,3.992187976837158,3.984375,3.976562976837158,395200,1983,7,11,1,4939
3.90625,3.976562976837158,3.976562976837158,3.90625,569600,1983,7,12,2,4940
3.859375,3.921875,3.890625,3.867187976837158,291200,1983,7,13,3,4941
3.875,3.9375,3.90625,3.898437976837158,419200,1983,7,14,4,4942
3.8125,3.914062976837158,3.90625,3.828125,329600,1983,7,15,5,4943
3.78125,3.828125,3.804687976837158,3.8125,827200,1983,7,18,1,4946
3.796875,3.820312976837158,3.804687976837158,3.8125,497600,1983,7,19,2,4947
3.8125,3.875,3.8125,3.875,633600,1983,7,20,3,4948
4.0,4.03125,4.03125,4.0,681600,1983,7,21,4,4949
4.015625,4.125,4.070312976837158,4.125,747200,1983,7,22,5,4950
4.148437976837158,4.210937976837158,4.148437976837158,4.210937976837158,441600,1983,7,25,1,4953
4.21875,4.3125,4.21875,4.3125,814400,1983,7,26,2,4954
4.1875,4.3125,4.3125,4.195312976837158,531200,1983,7,27,3,4955
4.0625,4.210937976837158,4.203125,4.085937976837158,384000,1983,7,28,4,4956
3.953125,4.054687976837158,4.03125,3.992187976837158,771200,1983,7,29,5,4957
3.867187976837158,3.921875,3.90625,3.914062976837158,1000000,1983,8,1,1,4960
3.90625,3.953125,3.9375,3.914062976837158,254400,1983,8,2,2,4961
3.84375,3.90625,3.890625,3.875,656000,1983,8,3,3,4962
3.65625,3.84375,3.796875,3.710937976837158,812800,1983,8,4,4,4963
3.6875,3.757812976837158,3.6875,3.734375,881600,1983,8,5,5,4964
3.703125,3.828125,3.703125,3.734375,472000,1983,8,8,1,4967
3.65625,3.765625,3.765625,3.671875,2072000,1983,8,9,2,4968
3.5,3.640625,3.640625,3.53125,1752000,1983,8,10,3,4969
3.5,3.609375,3.53125,3.5625,923200,1983,8,11,4,4970
3.578125,3.65625,3.59375,3.632812976837158,320000,1983,8,12,5,4971
3.664062976837158,3.765625,3.664062976837158,3.75,304000,1983,8,15,1,4974
3.632812976837158,3.75,3.75,3.671875,900800,1983,8,16,2,4975
3.65625,3.75,3.65625,3.734375,868800,1983,8,17,3,4976
3.703125,3.796875,3.765625,3.710937976837158,305600,1983,8,18,4,4977
3.703125,3.742187976837158,3.71875,3.734375,187200,1983,8,19,5,4978
3.734375,3.8125,3.742187976837158,3.742187976837158,1060800,1983,8,22,1,4981
3.75,3.8125,3.773437976837158,3.789062976837158,288000,1983,8,23,2,4982
3.726562976837158,3.765625,3.765625,3.734375,225600,1983,8,24,3,4983
3.710937976837158,3.8125,3.71875,3.804687976837158,550400,1983,8,25,4,4984
3.8125,3.90625,3.8125,3.90625,433600,1983,8,26,5,4985
3.882812976837158,3.960937976837158,3.921875,3.945312976837158,259200,1983,8,29,1,4988
3.953125,4.070312976837158,3.953125,4.0,1729600,1983,8,30,2,4989
3.96875,3.984375,3.96875,3.984375,924800,1983,8,31,3,4990
3.96875,4.0625,3.96875,4.046875,502400,1983,9,1,4,4991
4.046875,4.125,4.0625,4.125,310400,1983,9,2,5,4992
4.15625,4.203125,4.171875,4.1875,457600,1983,9,6,2,4996
4.21875,4.335937976837158,4.21875,4.335937976837158,1228800,1983,9,7,3,4997
4.320312976837158,4.375,4.34375,4.359375,628800,1983,9,8,4,4998
4.28125,4.375,4.359375,4.28125,2353600,1983,9,9,5,4999
4.25,4.375,4.296875,4.257812976837158,604800,1983,9,12,1,5002
4.125,4.265625,4.265625,4.1875,381600,1983,9,13,2,5003
4.15625,4.21875,4.21875,4.203125,126400,1983,9,14,3,5004
4.1875,4.21875,4.203125,4.21875,356800,1983,9,15,4,5005
4.0625,4.1875,4.1875,4.09375,581600,1983,9,16,5,5006
4.09375,4.21875,4.125,4.171875,172800,1983,9,19,1,5009
4.140625,4.25,4.140625,4.25,395200,1983,9,20,2,5010
4.203125,4.46875,4.25,4.46875,999200,1983,9,21,3,5011
4.375,4.46875,4.46875,4.4375,1304000,1983,9,22,4,5012
4.40625,4.546875,4.421875,4.546875,452800,1983,9,23,5,5013
4.46875,4.578125,4.546875,4.484375,338400,1983,9,26,1,5016
4.4375,4.53125,4.5,4.5,402400,1983,9,27,2,5017
4.453125,4.53125,4.46875,4.453125,150400,1983,9,28,3,5018
4.34375,4.5,4.4375,4.34375,211200,1983,9,29,4,5019
4.09375,4.28125,4.28125,4.109375,1076800,1983,9,30,5,5020
4.015625,4.109375,4.109375,4.109375,313600,1983,10,3,1,5023
4.078125,4.265625,4.078125,4.234375,366400,1983,10,4,2,5024
4.15625,4.25,4.1875,4.25,376000,1983,10,5,3,5025
4.21875,4.390625,4.25,4.34375,899200,1983,10,6,4,5026
4.5625,4.625,4.5625,4.609375,759200,1983,10,7,5,5027
4.515625,4.5625,4.5625,4.515625,546400,1983,10,10,1,5030
4.5,4.59375,4.5625,4.5,453600,1983,10,11,2,5031
4.46875,4.578125,4.5,4.5625,406400,1983,10,12,3,5032
4.5625,4.65625,4.625,4.578125,558400,1983,10,13,4,5033
4.515625,4.609375,4.5625,4.546875,148000,1983,10,14,5,5034
4.375,4.53125,4.53125,4.40625,324000,1983,10,17,1,5037
4.375,4.53125,4.515625,4.40625,324000,1983,10,18,2,5038
4.375,4.5625,4.421875,4.40625,2216000,1983,10,19,3,5039
4.40625,4.53125,4.4375,4.46875,604800,1983,10,20,4,5040
4.453125,4.5625,4.453125,4.53125,1336000,1983,10,21,5,5041
4.5,4.578125,4.53125,4.5625,313600,1983,10,24,1,5044
4.53125,4.59375,4.5625,4.546875,668800,1983,10,25,2,5045
4.453125,4.578125,4.546875,4.515625,351200,1983,10,26,3,5046
4.484375,4.5625,4.5,4.484375,41600,1983,10,27,4,5047
4.484375,4.53125,4.484375,4.5,607200,1983,10,28,5,5048
4.515625,4.59375,4.53125,4.5625,478400,1983,10,31,1,5051
4.4375,4.578125,4.578125,4.46875,793600,1983,11,1,2,5052
4.453125,4.5625,4.46875,4.546875,877600,1983,11,2,3,5053
4.453125,4.53125,4.53125,4.46875,236000,1983,11,3,4,5054
4.34375,4.453125,4.375,4.34375,336800,1983,11,4,5,5055
4.25,4.40625,4.375,4.28125,408000,1983,11,7,1,5058
4.203125,4.28125,4.28125,4.203125,435200,1983,11,8,2,5059
4.203125,4.28125,4.234375,4.25,176800,1983,11,9,3,5060
4.1875,4.28125,4.25,4.203125,495200,1983,11,10,4,5061
4.21875,4.3125,4.234375,4.3125,1606400,1983,11,11,5,5062
4.328125,4.4375,4.328125,4.375,616000,1983,11,14,1,5065
4.34375,4.390625,4.359375,4.34375,920800,1983,11,15,2,5066
4.296875,4.40625,4.3125,4.40625,454400,1983,11,16,3,5067
4.359375,4.421875,4.359375,4.390625,792000,1983,11,17,4,5068
4.328125,4.390625,4.359375,4.390625,531200,1983,11,18,5,5069
4.375,4.4375,4.421875,4.40625,281600,1983,11,21,1,5072
4.40625,4.5625,4.4375,4.53125,636800,1983,11,22,2,5073
4.546875,4.65625,4.546875,4.578125,619200,1983,11,23,3,5074
4.59375,4.625,4.625,4.59375,273600,1983,11,25,5,5076
4.53125,4.625,4.59375,4.5625,770400,1983,11,28,1,5079
4.4375,4.5625,4.5625,4.4375,1019200,1983,11,29,2,5080
4.46875,4.546875,4.5,4.515625,844000,1983,11,30,3,5081
4.484375,4.546875,4.484375,4.5,309600,1983,12,1,4,5082
4.46875,4.5625,4.46875,4.546875,124800,1983,12,2,5,5083
4.4375,4.515625,4.515625,4.5,754400,1983,12,5,1,5086
4.46875,4.515625,4.515625,4.46875,184000,1983,12,6,2,5087
4.4375,4.5,4.4375,4.4375,735200,1983,12,7,3,5088
4.40625,4.46875,4.46875,4.4375,628800,1983,12,8,4,5089
4.40625,4.453125,4.40625,4.4375,500000,1983,12,9,5,5090
4.390625,4.4375,4.390625,4.390625,120000,1983,12,12,1,5093
4.375,4.453125,4.40625,4.40625,100000,1983,12,13,2,5094
4.34375,4.40625,4.375,4.34375,1194400,1983,12,14,3,5095
4.25,4.3125,4.25,4.265625,192800,1983,12,15,4,5096
4.1875,4.28125,4.265625,4.234375,640800,1983,12,16,5,5097
4.203125,4.375,4.203125,4.296875,1264000,1983,12,19,1,5100
4.28125,4.375,4.28125,4.296875,405600,1983,12,20,2,5101
4.21875,4.3125,4.296875,4.3125,792800,1983,12,21,3,5102
4.25,4.34375,4.3125,4.25,403200,1983,12,22,4,5103
4.203125,4.25,4.203125,4.21875,127200,1983,12,23,5,5104
4.234375,4.328125,4.234375,4.328125,384800,1983,12,27,2,5108
4.25,4.328125,4.3125,4.296875,1399200,1983,12,28,3,5109
4.296875,4.4375,4.3125,4.4375,188800,1983,12,29,4,5110
4.34375,4.46875,4.46875,4.359375,563200,1983,12,30,5,5111
4.328125,4.453125,4.328125,4.34375,460000,1984,1,3,2,5115
4.3125,4.375,4.328125,4.34375,1320800,1984,1,4,3,5116
4.34375,4.609375,4.375,4.5625,1296000,1984,1,5,4,5117
4.53125,4.625,4.59375,4.59375,693600,1984,1,6,5,5118
4.578125,4.75,4.59375,4.671875,900800,1984,1,9,1,5121
4.578125,4.71875,4.703125,4.578125,532000,1984,1,10,2,5122
4.5,4.609375,4.5625,4.578125,502400,1984,1,11,3,5123
4.46875,4.5625,4.53125,4.5,204000,1984,1,12,4,5124
4.3125,4.4375,4.4375,4.375,294400,1984,1,13,5,5125
4.3125,4.421875,4.34375,4.421875,391200,1984,1,16,1,5128
4.375,4.4375,4.421875,4.421875,351200,1984,1,17,2,5129
4.34375,4.4375,4.421875,4.375,552800,1984,1,18,3,5130
4.40625,4.46875,4.40625,4.4375,529600,1984,1,19,4,5131
4.453125,4.484375,4.484375,4.453125,268000,1984,1,20,5,5132
4.296875,4.4375,4.4375,4.296875,2306400,1984,1,23,1,5135
4.21875,4.328125,4.296875,4.21875,504800,1984,1,24,2,5136
4.1875,4.296875,4.25,4.21875,560800,1984,1,25,3,5137
4.0625,4.1875,4.15625,4.15625,846400,1984,1,26,4,5138
4.09375,4.1875,4.125,4.125,588800,1984,1,27,5,5139
3.96875,4.078125,4.078125,4.0,643200,1984,1,30,1,5142
3.96875,4.09375,4.0,4.0,533600,1984,1,31,2,5143
3.8125,4.0625,4.0,3.96875,642400,1984,2,1,3,5144
3.859375,3.953125,3.921875,3.875,502400,1984,2,2,4,5145
3.90625,4.0,3.90625,3.9375,748800,1984,2,3,5,5146
3.859375,3.96875,3.890625,3.9375,1136800,1984,2,6,1,5149
3.875,3.953125,3.921875,3.953125,891200,1984,2,7,2,5150
3.921875,4.0625,4.03125,3.9375,405600,1984,2,8,3,5151
3.8125,3.96875,3.921875,3.84375,765600,1984,2,9,4,5152
3.71875,3.875,3.84375,3.78125,756000,1984,2,10,5,5153
3.71875,3.796875,3.796875,3.765625,352000,1984,2,13,1,5156
3.625,3.78125,3.78125,3.75,989600,1984,2,14,2,5157
3.59375,3.75,3.75,3.625,422400,1984,2,15,3,5158
3.546875,3.6875,3.671875,3.625,396800,1984,2,16,4,5159
3.421875,3.640625,3.625,3.46875,993600,1984,2,17,5,5160
3.4375,3.5,3.484375,3.484375,616000,1984,2,21,2,5164
3.4375,3.609375,3.484375,3.578125,3064800,1984,2,22,3,5165
3.4375,3.578125,3.578125,3.546875,684000,1984,2,23,4,5166
3.53125,3.625,3.5625,3.59375,696000,1984,2,24,5,5167
3.640625,3.8125,3.671875,3.78125,732800,1984,2,27,1,5170
3.625,3.78125,3.78125,3.65625,644800,1984,2,28,2,5171
3.65625,3.796875,3.65625,3.734375,277600,1984,2,29,3,5172
3.6875,3.8125,3.75,3.78125,355200,1984,3,1,4,5173
3.6875,3.8125,3.75,3.78125,1381600,1984,3,2,5,5174
3.71875,3.90625,3.8125,3.71875,566400,1984,3,5,1,5177
3.71875,3.8125,3.75,3.765625,408800,1984,3,6,2,5178
3.6875,3.8125,3.71875,3.75,195200,1984,3,7,3,5179
3.65625,3.765625,3.734375,3.71875,291200,1984,3,8,4,5180
3.65625,3.75,3.75,3.65625,484000,1984,3,9,5,5181
3.671875,3.796875,3.671875,3.75,291200,1984,3,12,1,5184
3.78125,3.875,3.78125,3.8125,470400,1984,3,13,2,5185
3.78125,3.859375,3.8125,3.8125,1076000,1984,3,14,3,5186
3.78125,3.859375,3.8125,3.8125,289600,1984,3,15,4,5187
3.890625,3.9375,3.90625,3.921875,772000,1984,3,16,5,5188
3.8125,3.890625,3.890625,3.859375,313600,1984,3,19,1,5191
3.796875,3.859375,3.828125,3.859375,220800,1984,3,20,2,5192
3.828125,3.9375,3.828125,3.875,252800,1984,3,21,3,5193
3.78125,3.90625,3.90625,3.828125,209600,1984,3,22,4,5194
3.75,3.84375,3.8125,3.78125,304800,1984,3,23,5,5195
3.75,3.8125,3.78125,3.796875,122400,1984,3,26,1,5198
3.75,3.8125,3.765625,3.796875,103200,1984,3,27,2,5199
3.78125,3.828125,3.796875,3.8125,248800,1984,3,28,3,5200
3.765625,3.828125,3.828125,3.796875,260800,1984,3,29,4,5201
3.71875,3.8125,3.796875,3.796875,354400,1984,3,30,5,5202
3.640625,3.796875,3.765625,3.640625,433600,1984,4,2,1,5205
3.625,3.71875,3.640625,3.6875,559200,1984,4,3,2,5206
3.65625,3.71875,3.65625,3.703125,249600,1984,4,4,3,5207
3.65625,3.71875,3.703125,3.703125,140800,1984,4,5,4,5208
3.640625,3.6875,3.671875,3.65625,188000,1984,4,6,5,5209
3.5,3.71875,3.6875,3.515625,860800,1984,4,9,1,5212
3.453125,3.53125,3.5,3.453125,480800,1984,4,10,2,5213
3.390625,3.453125,3.4375,3.4375,2084800,1984,4,11,3,5214
3.484375,3.578125,3.484375,3.546875,885600,1984,4,12,4,5215
3.4375,3.59375,3.578125,3.484375,2246400,1984,4,13,5,5216
3.421875,3.5,3.5,3.46875,888800,1984,4,16,1,5219
3.484375,3.546875,3.5,3.5,1244800,1984,4,17,2,5220
3.5,3.53125,3.515625,3.515625,1323200,1984,4,18,3,5221
3.5,3.578125,3.53125,3.5625,290400,1984,4,19,4,5222
3.546875,3.609375,3.59375,3.5625,242400,1984,4,23,1,5226
3.484375,3.609375,3.53125,3.5,612800,1984,4,24,2,5227
3.515625,3.59375,3.53125,3.5625,840800,1984,4,25,3,5228
3.59375,3.75,3.59375,3.703125,1172800,1984,4,26,4,5229
3.703125,3.8125,3.734375,3.75,596800,1984,4,27,5,5230
3.703125,3.796875,3.75,3.78125,315200,1984,4,30,1,5233
3.78125,3.84375,3.796875,3.84375,473600,1984,5,1,2,5234
3.78125,3.875,3.859375,3.859375,392800,1984,5,2,3,5235
3.78125,3.890625,3.890625,3.828125,353600,1984,5,3,4,5236
3.59375,3.796875,3.78125,3.65625,682400,1984,5,4,5,5237
3.65625,3.75,3.71875,3.75,988000,1984,5,7,1,5240
3.71875,3.828125,3.75,3.8125,811200,1984,5,8,2,5241
3.765625,3.875,3.8125,3.78125,752000,1984,5,9,3,5242
3.734375,3.78125,3.78125,3.78125,208800,1984,5,10,4,5243
3.5625,3.78125,3.78125,3.703125,575200,1984,5,11,5,5244
3.578125,3.71875,3.71875,3.625,273600,1984,5,14,1,5247
3.5625,3.640625,3.625,3.578125,702400,1984,5,15,2,5248
3.453125,3.5625,3.5625,3.5625,1334400,1984,5,16,3,5249
3.46875,3.5625,3.53125,3.46875,1342400,1984,5,17,4,5250
3.40625,3.5,3.453125,3.421875,908800,1984,5,18,5,5251
3.390625,3.46875,3.40625,3.421875,536800,1984,5,21,1,5254
3.28125,3.421875,3.421875,3.34375,1011200,1984,5,22,2,5255
3.34375,3.421875,3.359375,3.390625,583200,1984,5,23,3,5256
3.296875,3.40625,3.375,3.34375,1495200,1984,5,24,4,5257
3.28125,3.40625,3.375,3.3125,728000,1984,5,25,5,5258
3.1875,3.359375,3.34375,3.25,768000,1984,5,29,2,5262
3.125,3.28125,3.28125,3.15625,3813600,1984,5,30,3,5263
3.09375,3.171875,3.109375,3.125,1299200,1984,5,31,4,5264
3.171875,3.234375,3.1875,3.203125,1281600,1984,6,1,5,5265
3.21875,3.46875,3.21875,3.375,2139200,1984,6,4,1,5268
3.28125,3.40625,3.40625,3.34375,825600,1984,6,5,2,5269
3.40625,3.46875,3.40625,3.46875,440000,1984,6,6,3,5270
3.46875,3.515625,3.46875,3.515625,6442400,1984,6,7,4,5271
3.484375,3.546875,3.53125,3.53125,396800,1984,6,8,5,5272
3.515625,3.5625,3.5625,3.53125,323200,1984,6,11,1,5275
3.453125,3.5,3.484375,3.5,284000,1984,6,12,2,5276
3.484375,3.53125,3.5,3.515625,260800,1984,6,13,3,5277
3.421875,3.515625,3.5,3.453125,861600,1984,6,14,4,5278
3.375,3.484375,3.453125,3.40625,334400,1984,6,15,5,5279
3.375,3.484375,3.375,3.46875,472000,1984,6,18,1,5282
3.4375,3.5,3.5,3.484375,385600,1984,6,19,2,5283
3.375,3.46875,3.453125,3.46875,2826400,1984,6,20,3,5284
3.421875,3.46875,3.46875,3.453125,983200,1984,6,21,4,5285
3.390625,3.453125,3.453125,3.453125,839200,1984,6,22,5,5286
3.453125,3.515625,3.484375,3.46875,1771200,1984,6,25,1,5289
3.46875,3.546875,3.5,3.46875,2021600,1984,6,26,2,5290
3.375,3.46875,3.4375,3.4375,542400,1984,6,27,3,5291
3.390625,3.4375,3.4375,3.4375,572000,1984,6,28,4,5292
3.4375,3.484375,3.4375,3.484375,1027200,1984,6,29,5,5293
3.453125,3.53125,3.53125,3.484375,511200,1984,7,2,1,5296
3.46875,3.59375,3.5,3.5625,676000,1984,7,3,2,5297
3.5,3.578125,3.5625,3.546875,293600,1984,7,5,4,5299
3.484375,3.65625,3.53125,3.546875,331200,1984,7,6,5,5300
3.578125,3.625,3.59375,3.625,264000,1984,7,9,1,5303
3.65625,3.78125,3.65625,3.71875,552800,1984,7,10,2,5304
3.65625,3.75,3.71875,3.6875,184000,1984,7,11,3,5305
3.5625,3.6875,3.625,3.625,382400,1984,7,12,4,5306
3.546875,3.6875,3.65625,3.609375,687200,1984,7,13,5,5307
3.546875,3.65625,3.609375,3.625,436000,1984,7,16,1,5310
3.609375,3.6875,3.625,3.65625,928800,1984,7,17,2,5311
3.53125,3.65625,3.65625,3.625,272800,1984,7,18,3,5312
3.46875,3.625,3.625,3.5,314400,1984,7,19,4,5313
3.53125,3.625,3.53125,3.59375,136000,1984,7,20,5,5314
3.53125,3.59375,3.59375,3.546875,532000,1984,7,23,1,5317
3.53125,3.59375,3.546875,3.546875,476800,1984,7,24,2,5318
3.515625,3.578125,3.546875,3.546875,224800,1984,7,25,3,5319
3.5,3.578125,3.578125,3.53125,936800,1984,7,26,4,5320
3.46875,3.625,3.5,3.53125,457600,1984,7,27,5,5321
3.46875,3.609375,3.546875,3.5,628000,1984,7,30,1,5324
3.40625,3.53125,3.484375,3.453125,531200,1984,7,31,2,5325
3.484375,3.734375,3.484375,3.625,1785600,1984,8,1,3,5326
3.625,3.75,3.625,3.75,1441600,1984,8,2,4,5327
3.828125,3.9375,3.875,3.875,1789600,1984,8,3,5,5328
3.8125,3.9375,3.859375,3.9375,2960800,1984,8,6,1,5331
3.890625,4.046875,3.90625,3.984375,716000,1984,8,7,2,5332
3.9375,4.0,3.984375,3.9375,592000,1984,8,8,3,5333
3.875,4.125,3.9375,4.109375,1179200,1984,8,9,4,5334
4.09375,4.234375,4.09375,4.1875,1677600,1984,8,10,5,5335
4.0625,4.1875,4.15625,4.078125,1063200,1984,8,13,1,5338
4.09375,4.15625,4.15625,4.09375,637600,1984,8,14,2,5339
3.96875,4.109375,4.03125,4.078125,536000,1984,8,15,3,5340
4.046875,4.15625,4.046875,4.09375,495200,1984,8,16,4,5341
4.09375,4.15625,4.125,4.109375,474400,1984,8,17,5,5342
4.09375,4.1875,4.09375,4.1875,893600,1984,8,20,1,5345
4.15625,4.28125,4.21875,4.234375,700000,1984,8,21,2,5346
4.125,4.234375,4.234375,4.21875,1062400,1984,8,22,3,5347
4.171875,4.21875,4.1875,4.1875,199200,1984,8,23,4,5348
4.1875,4.3125,4.1875,4.296875,376800,1984,8,24,5,5349
4.21875,4.3125,4.3125,4.28125,188800,1984,8,27,1,5352
4.21875,4.296875,4.25,4.234375,974400,1984,8,28,2,5353
4.171875,4.28125,4.25,4.1875,725600,1984,8,29,3,5354
4.140625,4.203125,4.15625,4.15625,276000,1984,8,30,4,5355
4.09375,4.1875,4.125,4.1875,365600,1984,8,31,5,5356
4.140625,4.171875,4.15625,4.171875,382400,1984,9,4,2,5360
4.078125,4.171875,4.140625,4.140625,368000,1984,9,5,3,5361
4.171875,4.203125,4.171875,4.1875,220000,1984,9,6,4,5362
4.15625,4.25,4.234375,4.1875,332000,1984,9,7,5,5363
4.140625,4.21875,4.15625,4.1875,212800,1984,9,10,1,5366
4.21875,4.28125,4.21875,4.25,533600,1984,9,11,2,5367
4.1875,4.25,4.21875,4.21875,748800,1984,9,12,3,5368
4.1875,4.34375,4.1875,4.34375,1043200,1984,9,13,4,5369
4.296875,4.375,4.359375,4.34375,648800,1984,9,14,5,5370
4.3125,4.40625,4.3125,4.40625,676800,1984,9,17,1,5373
4.40625,4.484375,4.421875,4.484375,744800,1984,9,18,2,5374
4.421875,4.515625,4.453125,4.4375,767200,1984,9,19,3,5375
4.40625,4.484375,4.40625,4.46875,536800,1984,9,20,4,5376
4.4375,4.484375,4.4375,4.4375,721600,1984,9,21,5,5377
4.40625,4.484375,4.421875,4.46875,444000,1984,9,24,1,5380
4.375,4.453125,4.453125,4.421875,1692000,1984,9,25,2,5381
4.359375,4.46875,4.40625,4.359375,603200,1984,9,26,3,5382
4.28125,4.40625,4.390625,4.375,757600,1984,9,27,4,5383
4.15625,4.265625,4.265625,4.21875,817600,1984,9,28,5,5384
4.171875,4.25,4.1875,4.21875,296800,1984,10,1,1,5387
4.171875,4.28125,4.203125,4.171875,294400,1984,10,2,2,5388
4.0,4.1875,4.140625,4.03125,1790400,1984,10,3,3,5389
4.03125,4.09375,4.03125,4.09375,644000,1984,10,4,4,5390
4.125,4.21875,4.125,4.171875,310400,1984,10,5,5,5391
4.078125,4.171875,4.15625,4.109375,121600,1984,10,8,1,5394
4.09375,4.15625,4.109375,4.140625,1056000,1984,10,9,2,5395
4.03125,4.15625,4.140625,4.15625,262400,1984,10,10,3,5396
4.140625,4.21875,4.140625,4.21875,126400,1984,10,11,4,5397
4.1875,4.328125,4.1875,4.296875,442400,1984,10,12,5,5398
4.28125,4.390625,4.3125,4.34375,1718400,1984,10,15,1,5401
4.1875,4.34375,4.328125,4.21875,244000,1984,10,16,2,5402
4.1875,4.28125,4.21875,4.25,328800,1984,10,17,3,5403
4.21875,4.34375,4.21875,4.34375,368000,1984,10,18,4,5404
4.34375,4.5625,4.34375,4.421875,1361600,1984,10,19,5,5405
4.375,4.421875,4.421875,4.375,663200,1984,10,22,1,5408
4.3125,4.375,4.34375,4.34375,997600,1984,10,23,2,5409
4.328125,4.4375,4.328125,4.390625,234400,1984,10,24,3,5410
4.328125,4.390625,4.375,4.34375,1270400,1984,10,25,4,5411
4.234375,4.34375,4.3125,4.28125,825600,1984,10,26,5,5412
4.25,4.28125,4.265625,4.25,343200,1984,10,29,1,5415
4.21875,4.359375,4.25,4.328125,420000,1984,10,30,2,5416
4.28125,4.3125,4.28125,4.296875,791200,1984,10,31,3,5417
4.09375,4.15625,4.125,4.125,859200,1984,11,1,4,5418
4.0625,4.171875,4.078125,4.140625,1601600,1984,11,2,5,5419
4.109375,4.203125,4.125,4.203125,407200,1984,11,5,1,5422
4.21875,4.296875,4.21875,4.296875,916000,1984,11,6,2,5423
4.234375,4.296875,4.28125,4.28125,539200,1984,11,7,3,5424
4.25,4.296875,4.28125,4.28125,999200,1984,11,8,4,5425
4.234375,4.3125,4.296875,4.28125,480000,1984,11,9,5,5426
4.265625,4.3125,4.265625,4.296875,361600,1984,11,12,1,5429
4.234375,4.296875,4.265625,4.28125,615200,1984,11,13,2,5430
4.25,4.328125,4.265625,4.3125,357600,1984,11,14,3,5431
4.28125,4.3125,4.3125,4.3125,764000,1984,11,15,4,5432
4.28125,4.359375,4.3125,4.328125,492000,1984,11,16,5,5433
4.28125,4.375,4.296875,4.3125,768000,1984,11,19,1,5436
4.21875,4.296875,4.265625,4.25,313600,1984,11,20,2,5437
4.21875,4.28125,4.28125,4.25,612800,1984,11,21,3,5438
4.21875,4.28125,4.234375,4.25,168000,1984,11,23,5,5440
4.203125,4.25,4.25,4.234375,520800,1984,11,26,1,5443
4.171875,4.234375,4.203125,4.203125,790400,1984,11,27,2,5444
4.125,4.1875,4.1875,4.140625,481600,1984,11,28,3,5445
4.03125,4.125,4.109375,4.078125,733600,1984,11,29,4,5446
4.078125,4.1875,4.125,4.109375,350400,1984,11,30,5,5447
4.0625,4.125,4.078125,4.078125,244800,1984,12,3,1,5450
4.078125,4.1875,4.078125,4.15625,598400,1984,12,4,2,5451
4.0625,4.125,4.125,4.09375,287200,1984,12,5,3,5452
4.078125,4.171875,4.09375,4.140625,384800,1984,12,6,4,5453
4.09375,4.140625,4.09375,4.125,342400,1984,12,7,5,5454
4.125,4.171875,4.125,4.140625,331200,1984,12,10,1,5457
4.125,4.1875,4.125,4.140625,416000,1984,12,11,2,5458
4.125,4.15625,4.125,4.140625,872800,1984,12,12,3,5459
4.09375,4.15625,4.125,4.109375,420000,1984,12,13,4,5460
4.0625,4.125,4.078125,4.09375,412000,1984,12,14,5,5461
4.0,4.125,4.125,4.0625,1825600,1984,12,17,1,5464
4.09375,4.171875,4.09375,4.171875,884000,1984,12,18,2,5465
4.15625,4.21875,4.15625,4.15625,755200,1984,12,19,3,5466
4.125,4.21875,4.203125,4.125,779200,1984,12,20,4,5467
3.9375,4.15625,4.09375,4.046875,1142400,1984,12,21,5,5468
4.046875,4.125,4.078125,4.109375,260800,1984,12,24,1,5471
4.03125,4.109375,4.109375,4.046875,103200,1984,12,26,3,5473
4.046875,4.09375,4.078125,4.0625,1440800,1984,12,27,4,5474
4.0,4.0625,4.03125,4.046875,319200,1984,12,28,5,5475
4.046875,4.171875,4.078125,4.109375,479200,1984,12,31,1,5478
4.109375,4.203125,4.109375,4.15625,910400,1985,1,2,3,5480
4.125,4.171875,4.15625,4.15625,364800,1985,1,3,4,5481
4.125,4.171875,4.140625,4.125,332800,1985,1,4,5,5482
4.140625,4.21875,4.171875,4.171875,1047200,1985,1,7,1,5485
4.15625,4.203125,4.171875,4.1875,320800,1985,1,8,2,5486
4.1875,4.21875,4.21875,4.21875,337600,1985,1,9,3,5487
4.203125,4.296875,4.21875,4.296875,1797600,1985,1,10,4,5488
4.234375,4.3125,4.296875,4.28125,1031200,1985,1,11,5,5489
4.25,4.328125,4.25,4.328125,2920800,1985,1,14,1,5492
4.296875,4.4375,4.328125,4.40625,5229600,1985,1,15,2,5493
4.40625,4.5625,4.5,4.515625,13840000,1985,1,16,3,5494
4.484375,4.515625,4.515625,4.5,1127200,1985,1,17,4,5495
4.515625,4.578125,4.53125,4.546875,2415200,1985,1,18,5,5496
4.53125,4.71875,4.53125,4.71875,1831200,1985,1,21,1,5499
4.71875,4.859375,4.734375,4.734375,2558400,1985,1,22,2,5500
4.71875,4.796875,4.75,4.765625,644800,1985,1,23,3,5501
4.71875,4.796875,4.734375,4.734375,940800,1985,1,24,4,5502
4.71875,4.921875,4.71875,4.921875,966400,1985,1,25,5,5503
4.859375,5.0,4.875,5.0,801600,1985,1,28,1,5506
4.875,4.96875,4.921875,4.96875,579200,1985,1,29,2,5507
4.890625,4.984375,4.984375,4.96875,1524000,1985,1,30,3,5508
4.78125,4.90625,4.875,4.84375,620800,1985,1,31,4,5509
4.78125,4.84375,4.8125,4.78125,423200,1985,2,1,5,5510
4.765625,4.828125,4.765625,4.8125,1716000,1985,2,4,1,5513
4.75,4.828125,4.8125,4.78125,636800,1985,2,5,2,5514
4.65625,4.8125,4.765625,4.703125,1779200,1985,2,6,3,5515
4.6875,4.78125,4.703125,4.78125,568000,1985,2,7,4,5516
4.75,4.859375,4.78125,4.859375,959200,1985,2,8,5,5517
4.78125,4.8125,4.8125,4.796875,571200,1985,2,11,1,5520
4.71875,4.796875,4.765625,4.734375,586400,1985,2,12,2,5521
4.6875,4.75,4.71875,4.734375,432000,1985,2,13,3,5522
4.65625,4.734375,4.734375,4.6875,1396800,1985,2,14,4,5523
4.625,4.65625,4.65625,4.625,1879200,1985,2,15,5,5524
4.609375,4.6875,4.6875,4.609375,924800,1985,2,19,2,5528
4.578125,4.625,4.609375,4.59375,1586400,1985,2,20,3,5529
4.546875,4.59375,4.59375,4.578125,1268000,1985,2,21,4,5530
4.546875,4.609375,4.5625,4.59375,1045600,1985,2,22,5,5531
4.609375,4.609375,4.609375,4.609375,356800,1985,2,25,1,5534
4.59375,4.65625,4.609375,4.640625,665600,1985,2,26,2,5535
4.625,4.6875,4.625,4.65625,451200,1985,2,27,3,5536
4.671875,4.71875,4.6875,4.71875,763200,1985,2,28,4,5537
4.71875,4.859375,4.75,4.828125,774400,1985,3,1,5,5538
4.734375,4.8125,4.796875,4.765625,907200,1985,3,4,1,5541
4.71875,4.84375,4.796875,4.75,940000,1985,3,5,2,5542
4.75,4.859375,4.75,4.8125,1347200,1985,3,6,3,5543
4.765625,4.890625,4.78125,4.828125,678400,1985,3,7,4,5544
4.8125,4.90625,4.8125,4.90625,493600,1985,3,8,5,5545
4.859375,4.953125,4.875,4.875,1016000,1985,3,11,1,5548
4.6875,4.875,4.84375,4.75,862400,1985,3,12,2,5549
4.6875,4.796875,4.71875,4.703125,280800,1985,3,13,3,5550
4.65625,4.8125,4.6875,4.796875,569600,1985,3,14,4,5551
4.625,4.8125,4.765625,4.625,582400,1985,3,15,5,5552
4.625,4.703125,4.625,4.671875,464000,1985,3,18,1,5555
4.640625,4.796875,4.640625,4.75,392800,1985,3,19,2,5556
4.65625,4.71875,4.71875,4.6875,212800,1985,3,20,3,5557
4.625,4.703125,4.65625,4.671875,334400,1985,3,21,4,5558
4.65625,4.734375,4.6875,4.703125,413600,1985,3,22,5,5559
4.65625,4.734375,4.703125,4.703125,211200,1985,3,25,1,5562
4.6875,4.78125,4.71875,4.71875,472000,1985,3,26,2,5563
4.703125,4.75,4.734375,4.734375,250400,1985,3,27,3,5564
4.640625,4.734375,4.734375,4.671875,610400,1985,3,28,4,5565
4.625,4.703125,4.703125,4.65625,410400,1985,3,29,5,5566
4.65625,4.703125,4.671875,4.6875,460800,1985,4,1,1,5569
4.671875,4.71875,4.703125,4.703125,448000,1985,4,2,2,5570
4.671875,4.75,4.671875,4.75,388000,1985,4,3,3,5571
4.703125,4.75,4.703125,4.734375,434400,1985,4,4,4,5572
4.703125,4.734375,4.734375,4.734375,388000,1985,4,8,1,5576
4.6875,4.71875,4.6875,4.71875,454400,1985,4,9,2,5577
4.65625,4.78125,4.78125,4.6875,894400,1985,4,10,3,5578
4.671875,4.71875,4.703125,4.6875,643200,1985,4,11,4,5579
4.625,4.6875,4.65625,4.65625,1068800,1985,4,12,5,5580
4.625,4.6875,4.625,4.6875,189600,1985,4,15,1,5583
4.578125,4.671875,4.640625,4.625,768800,1985,4,16,2,5584
4.421875,4.578125,4.5625,4.484375,2160800,1985,4,17,3,5585
4.390625,4.4375,4.40625,4.421875,640800,1985,4,18,4,5586
4.390625,4.453125,4.4375,4.4375,615200,1985,4,19,5,5587
4.34375,4.40625,4.40625,4.40625,780000,1985,4,22,1,5590
4.34375,4.453125,4.34375,4.453125,564000,1985,4,23,2,5591
4.375,4.453125,4.390625,4.390625,4750400,1985,4,24,3,5592
4.34375,4.4375,4.4375,4.4375,649600,1985,4,25,4,5593
4.390625,4.4375,4.40625,4.421875,842400,1985,4,26,5,5594
4.375,4.421875,4.421875,4.390625,504000,1985,4,29,1,5597
4.34375,4.375,4.359375,4.359375,612800,1985,4,30,2,5598
4.34375,4.40625,4.359375,4.34375,2526400,1985,5,1,3,5599
4.3125,4.359375,4.328125,4.359375,977600,1985,5,2,4,5600
4.34375,4.40625,4.359375,4.390625,497600,1985,5,3,5,5601
4.3125,4.375,4.359375,4.3125,297600,1985,5,6,1,5604
4.3125,4.375,4.34375,4.375,423200,1985,5,7,2,5605
4.328125,4.375,4.375,4.34375,1213600,1985,5,8,3,5606
4.359375,4.40625,4.359375,4.40625,549600,1985,5,9,4,5607
4.40625,4.53125,4.421875,4.515625,1000000,1985,5,10,5,5608
4.46875,4.546875,4.546875,4.5,528000,1985,5,13,1,5611
4.53125,4.625,4.53125,4.59375,852000,1985,5,14,2,5612
4.59375,4.6875,4.609375,4.640625,1112000,1985,5,15,3,5613
4.65625,4.75,4.671875,4.75,509600,1985,5,16,4,5614
4.78125,4.859375,4.78125,4.84375,1585600,1985,5,17,5,5615
4.875,4.96875,4.890625,4.9375,1227200,1985,5,20,1,5618
4.90625,4.96875,4.9375,4.953125,665600,1985,5,21,2,5619
4.921875,4.96875,4.9375,4.9375,1565600,1985,5,22,3,5620
4.875,4.953125,4.921875,4.953125,925600,1985,5,23,4,5621
4.890625,4.984375,4.96875,4.921875,918400,1985,5,24,5,5622
4.828125,4.921875,4.90625,4.859375,714400,1985,5,28,2,5626
4.828125,4.90625,4.84375,4.875,803200,1985,5,29,3,5627
4.84375,4.90625,4.890625,4.875,470400,1985,5,30,4,5628
4.84375,4.90625,4.875,4.890625,618400,1985,5,31,5,5629
4.796875,4.890625,4.859375,4.8125,446400,1985,6,3,1,5632
4.78125,4.96875,4.78125,4.921875,4740800,1985,6,4,2,5633
4.9375,5.109375,4.953125,5.09375,2116000,1985,6,5,3,5634
5.03125,5.109375,5.09375,5.109375,1146400,1985,6,6,4,5635
5.09375,5.1875,5.09375,5.15625,784000,1985,6,7,5,5636
5.125,5.15625,5.15625,5.125,580800,1985,6,10,1,5639
5.09375,5.140625,5.140625,5.109375,719200,1985,6,11,2,5640
5.078125,5.125,5.109375,5.09375,701600,1985,6,12,3,5641
5.078125,5.15625,5.125,5.09375,1678400,1985,6,13,4,5642
5.125,5.234375,5.140625,5.21875,594400,1985,6,14,5,5643
5.1875,5.25,5.203125,5.25,363200,1985,6,17,1,5646
5.171875,5.28125,5.21875,5.1875,696800,1985,6,18,2,5647
5.15625,5.28125,5.203125,5.25,1571200,1985,6,19,3,5648
5.21875,5.28125,5.21875,5.28125,241600,1985,6,20,4,5649
5.25,5.296875,5.25,5.296875,808000,1985,6,21,5,5650
5.21875,5.28125,5.265625,5.265625,1336800,1985,6,24,1,5653
5.1875,5.359375,5.25,5.203125,1568000,1985,6,25,2,5654
5.1875,5.28125,5.21875,5.25,676000,1985,6,26,3,5655
5.21875,5.296875,5.25,5.21875,648000,1985,6,27,4,5656
5.203125,5.265625,5.25,5.234375,646400,1985,6,28,5,5657
5.203125,5.296875,5.234375,5.28125,485600,1985,7,1,1,5660
5.25,5.3125,5.265625,5.3125,669600,1985,7,2,2,5661
5.28125,5.4375,5.3125,5.40625,1062400,1985,7,3,3,5662
5.390625,5.421875,5.40625,5.421875,444000,1985,7,5,5,5664
5.390625,5.421875,5.390625,5.421875,688000,1985,7,8,1,5667
5.328125,5.421875,5.421875,5.390625,791200,1985,7,9,2,5668
5.34375,5.40625,5.375,5.375,2248800,1985,7,10,3,5669
5.328125,5.390625,5.328125,5.390625,1067200,1985,7,11,4,5670
5.390625,5.453125,5.421875,5.453125,568800,1985,7,12,5,5671
5.4375,5.5,5.46875,5.453125,708800,1985,7,15,1,5674
5.421875,5.53125,5.453125,5.5,656800,1985,7,16,2,5675
5.59375,5.671875,5.625,5.671875,2698400,1985,7,17,3,5676
5.625,5.796875,5.671875,5.78125,1896000,1985,7,18,4,5677
5.734375,5.90625,5.75,5.875,1309600,1985,7,19,5,5678
5.71875,5.859375,5.84375,5.765625,429600,1985,7,22,1,5681
5.59375,5.8125,5.796875,5.625,941600,1985,7,23,2,5682
5.5,5.65625,5.65625,5.53125,410400,1985,7,24,3,5683
5.5,5.5625,5.53125,5.5625,535200,1985,7,25,4,5684
5.546875,5.734375,5.546875,5.71875,1002400,1985,7,26,5,5685
5.59375,5.734375,5.734375,5.640625,928000,1985,7,29,1,5688
5.59375,5.65625,5.625,5.640625,361600,1985,7,30,2,5689
5.625,5.6875,5.640625,5.671875,216800,1985,7,31,3,5690
5.625,5.6875,5.671875,5.65625,372800,1985,8,1,4,5691
5.640625,5.734375,5.671875,5.6875,945600,1985,8,2,5,5692
5.640625,5.6875,5.6875,5.65625,348800,1985,8,5,1,5695
5.46875,5.65625,5.5,5.5,2713600,1985,8,6,2,5696
5.40625,5.53125,5.5,5.5,1204000,1985,8,7,3,5697
5.5,5.6875,5.53125,5.6875,1320000,1985,8,8,4,5698
5.609375,5.703125,5.65625,5.640625,725600,1985,8,9,5,5699
5.609375,5.65625,5.609375,5.625,644000,1985,8,12,1,5702
5.625,5.6875,5.640625,5.640625,587200,1985,8,13,2,5703
5.625,5.6875,5.625,5.65625,302400,1985,8,14,3,5704
5.53125,5.671875,5.671875,5.53125,822400,1985,8,15,4,5705
5.375,5.53125,5.5,5.421875,678400,1985,8,16,5,5706
5.421875,5.484375,5.421875,5.453125,441600,1985,8,19,1,5709
5.453125,5.578125,5.484375,5.546875,385600,1985,8,20,2,5710
5.453125,5.625,5.53125,5.5625,1249600,1985,8,21,3,5711
5.484375,5.59375,5.59375,5.5,1018400,1985,8,22,4,5712
5.4375,5.5625,5.46875,5.484375,458400,1985,8,23,5,5713
5.484375,5.546875,5.484375,5.5,340800,1985,8,26,1,5716
5.484375,5.5625,5.484375,5.5625,152800,1985,8,27,2,5717
5.46875,5.578125,5.5625,5.5,448800,1985,8,28,3,5718
5.484375,5.546875,5.5,5.53125,355200,1985,8,29,4,5719
5.484375,5.546875,5.53125,5.53125,737600,1985,8,30,5,5720
5.515625,5.6875,5.546875,5.6875,384000,1985,9,3,2,5724
5.625,5.734375,5.6875,5.671875,371200,1985,9,4,3,5725
5.5625,5.6875,5.6875,5.578125,484000,1985,9,5,4,5726
5.484375,5.59375,5.5625,5.546875,406400,1985,9,6,5,5727
5.5,5.5625,5.5625,5.5,142400,1985,9,9,1,5730
5.46875,5.515625,5.46875,5.5,272800,1985,9,10,2,5731
5.375,5.5,5.5,5.390625,1280000,1985,9,11,3,5732
5.34375,5.4375,5.375,5.375,597600,1985,9,12,4,5733
5.375,5.4375,5.375,5.421875,556800,1985,9,13,5,5734
5.40625,5.53125,5.453125,5.515625,253600,1985,9,16,1,5737
5.515625,5.625,5.515625,5.609375,879200,1985,9,17,2,5738
5.484375,5.640625,5.578125,5.484375,427200,1985,9,18,3,5739
5.453125,5.515625,5.515625,5.484375,568000,1985,9,19,4,5740
5.421875,5.53125,5.453125,5.46875,589600,1985,9,20,5,5741
5.53125,5.59375,5.53125,5.59375,484000,1985,9,23,1,5744
5.578125,5.65625,5.59375,5.609375,599200,1985,9,24,2,5745
5.546875,5.609375,5.546875,5.609375,301600,1985,9,25,3,5746
5.53125,5.625,5.625,5.59375,360000,1985,9,26,4,5747
5.578125,5.625,5.59375,5.625,349600,1985,9,30,1,5751
5.59375,5.703125,5.609375,5.703125,324000,1985,10,1,2,5752
5.59375,5.796875,5.71875,5.59375,1103200,1985,10,2,3,5753
5.578125,5.6875,5.578125,5.609375,260800,1985,10,3,4,5754
5.546875,5.609375,5.609375,5.578125,794400,1985,10,4,5,5755
5.390625,5.5625,5.5625,5.40625,848800,1985,10,7,1,5758
5.40625,5.484375,5.4375,5.453125,253600,1985,10,8,2,5759
5.40625,5.46875,5.421875,5.4375,2060000,1985,10,9,3,5760
5.421875,5.453125,5.421875,5.4375,260000,1985,10,10,4,5761
5.40625,5.46875,5.40625,5.46875,1391200,1985,10,11,5,5762
5.453125,5.53125,5.46875,5.53125,680000,1985,10,14,1,5765
5.53125,5.59375,5.5625,5.59375,476800,1985,10,15,2,5766
5.578125,5.671875,5.578125,5.671875,1112000,1985,10,16,3,5767
5.640625,5.703125,5.640625,5.6875,757600,1985,10,17,4,5768
5.5625,5.703125,5.671875,5.578125,757600,1985,10,18,5,5769
5.5625,5.734375,5.59375,5.65625,1012800,1985,10,21,1,5772
5.65625,5.71875,5.671875,5.703125,692000,1985,10,22,2,5773
5.59375,5.703125,5.703125,5.671875,376800,1985,10,23,3,5774
5.59375,5.671875,5.65625,5.625,386400,1985,10,24,4,5775
5.515625,5.609375,5.59375,5.609375,182400,1985,10,25,5,5776
5.546875,5.625,5.609375,5.609375,180000,1985,10,28,1,5779
5.609375,5.65625,5.609375,5.65625,212800,1985,10,29,2,5780
5.625,5.671875,5.625,5.671875,640000,1985,10,30,3,5781
5.65625,5.6875,5.65625,5.6875,524000,1985,10,31,4,5782
5.65625,5.890625,5.65625,5.890625,965600,1985,11,1,5,5783
5.859375,6.0,5.90625,5.90625,1089600,1985,11,4,1,5786
5.8125,6.015625,6.015625,6.015625,884000,1985,11,5,2,5787
6.015625,6.15625,6.015625,6.046875,1521600,1985,11,6,3,5788
6.03125,6.15625,6.046875,6.15625,840000,1985,11,7,4,5789
6.046875,6.125,6.125,6.09375,337600,1985,11,8,5,5790
6.03125,6.15625,6.09375,6.15625,656800,1985,11,11,1,5793
6.125,6.25,6.125,6.234375,1264800,1985,11,12,2,5794
6.140625,6.25,6.25,6.140625,449600,1985,11,13,3,5795
6.078125,6.234375,6.125,6.171875,614400,1985,11,14,4,5796
6.15625,6.3125,6.15625,6.203125,1276800,1985,11,15,5,5797
6.140625,6.296875,6.21875,6.296875,1349600,1985,11,18,1,5800
6.34375,6.421875,6.375,6.421875,854400,1985,11,19,2,5801
6.34375,6.40625,6.375,6.375,290400,1985,11,20,3,5802
6.34375,6.40625,6.375,6.375,668800,1985,11,21,4,5803
6.203125,6.375,6.34375,6.21875,374400,1985,11,22,5,5804
6.1875,6.3125,6.3125,6.265625,424800,1985,11,25,1,5807
6.0625,6.25,6.234375,6.15625,1265600,1985,11,26,2,5808
6.1875,6.3125,6.1875,6.28125,1169600,1985,11,27,3,5809
6.203125,6.3125,6.25,6.234375,924800,1985,11,29,5,5811
6.125,6.21875,6.203125,6.203125,472800,1985,12,2,1,5814
6.171875,6.25,6.21875,6.1875,650400,1985,12,3,2,5815
6.03125,6.1875,6.0625,6.171875,2110400,1985,12,4,3,5816
5.9375,6.1875,6.15625,5.9375,1506400,1985,12,5,4,5817
5.5625,5.90625,5.90625,5.859375,1225600,1985,12,6,5,5818
5.828125,6.078125,5.828125,5.96875,827200,1985,12,9,1,5821
5.9375,6.03125,5.9375,5.953125,409600,1985,12,10,2,5822
5.9375,6.0,5.9375,5.984375,549600,1985,12,11,3,5823
5.90625,6.0625,5.984375,5.984375,1932000,1985,12,12,4,5824
5.984375,6.234375,5.984375,6.203125,625600,1985,12,13,5,5825
6.140625,6.359375,6.1875,6.34375,1236000,1985,12,16,1,5828
6.1875,6.359375,6.359375,6.359375,1179200,1985,12,17,2,5829
6.28125,6.375,6.328125,6.34375,987200,1985,12,18,3,5830
6.28125,6.359375,6.296875,6.296875,683200,1985,12,19,4,5831
6.25,6.375,6.296875,6.375,795200,1985,12,20,5,5832
6.28125,6.375,6.3125,6.359375,602400,1985,12,23,1,5835
6.09375,6.3125,6.3125,6.140625,727200,1985,12,24,2,5836
6.09375,6.140625,6.125,6.109375,173600,1985,12,26,4,5838
6.078125,6.1875,6.078125,6.1875,525600,1985,12,27,5,5839
6.15625,6.265625,6.1875,6.265625,418400,1985,12,30,1,5842
6.25,6.375,6.28125,6.375,786400,1985,12,31,2,5843
6.296875,6.375,6.375,6.328125,540800,1986,1,2,4,5845
6.25,6.34375,6.3125,6.296875,650400,1986,1,3,5,5846
6.140625,6.296875,6.296875,6.1875,427200,1986,1,6,1,5849
6.03125,6.234375,6.21875,6.125,592000,1986,1,7,2,5850
5.6875,6.171875,6.15625,5.71875,1376800,1986,1,8,3,5851
5.625,5.828125,5.625,5.828125,1164800,1986,1,9,4,5852
5.765625,5.84375,5.8125,5.78125,749600,1986,1,10,5,5853
5.765625,5.84375,5.78125,5.78125,688800,1986,1,13,1,5856
5.71875,5.796875,5.78125,5.765625,1518400,1986,1,14,2,5857
5.71875,5.90625,5.75,5.90625,1378400,1986,1,15,3,5858
5.875,6.03125,5.921875,5.984375,352000,1986,1,16,4,5859
5.9375,6.0625,5.953125,6.015625,518400,1986,1,17,5,5860
5.890625,5.984375,5.984375,5.96875,744800,1986,1,20,1,5863
5.875,6.0,5.953125,5.921875,740000,1986,1,21,2,5864
5.8125,6.0,5.96875,5.8125,1319200,1986,1,22,3,5865
5.765625,5.875,5.78125,5.828125,598400,1986,1,23,4,5866
5.8125,5.953125,5.8125,5.953125,909600,1986,1,24,5,5867
5.890625,5.984375,5.90625,5.96875,435200,1986,1,27,1,5870
5.9375,6.0,6.0,5.953125,480800,1986,1,28,2,5871
5.953125,6.125,5.984375,6.03125,848000,1986,1,29,3,5872
6.0,6.109375,6.015625,6.0625,881600,1986,1,30,4,5873
6.078125,6.171875,6.109375,6.140625,1335200,1986,1,31,5,5874
6.109375,6.21875,6.109375,6.203125,628000,1986,2,3,1,5877
6.21875,6.28125,6.25,6.234375,1524000,1986,2,4,2,5878
6.234375,6.328125,6.25,6.3125,1951200,1986,2,5,3,5879
6.328125,6.453125,6.34375,6.421875,1742400,1986,2,6,4,5880
6.359375,6.53125,6.421875,6.53125,972000,1986,2,7,5,5881
6.546875,6.734375,6.703125,6.703125,1145600,1986,2,10,1,5884
6.640625,6.890625,6.875,6.875,1729600,1986,2,11,2,5885
6.75,6.90625,6.84375,6.75,1461600,1986,2,12,3,5886
6.6875,6.875,6.71875,6.875,1157600,1986,2,13,4,5887
6.734375,6.96875,6.90625,6.96875,1000000,1986,2,14,5,5888
6.96875,7.15625,7.0,7.125,1034400,1986,2,18,2,5892
7.125,7.34375,7.15625,7.171875,1052000,1986,2,19,3,5893
7.125,7.234375,7.171875,7.15625,2320800,1986,2,20,4,5894
7.140625,7.3125,7.15625,7.265625,1183200,1986,2,21,5,5895
7.15625,7.3125,7.21875,7.296875,668800,1986,2,24,1,5898
7.15625,7.34375,7.3125,7.21875,1738400,1986,2,25,2,5899
7.21875,7.296875,7.25,7.28125,732000,1986,2,26,3,5900
7.25,7.375,7.3125,7.328125,463200,1986,2,27,4,5901
7.46875,7.6875,7.5,7.6875,1215200,1986,2,28,5,5902
7.421875,7.6875,7.6875,7.453125,721600,1986,3,3,1,5905
7.34375,7.6875,7.453125,7.53125,1326400,1986,3,4,2,5906
7.46875,7.5625,7.5625,7.5625,562400,1986,3,5,3,5907
7.5625,8.046875,7.59375,7.984375,1779200,1986,3,6,4,5908
7.84375,7.984375,7.984375,7.90625,1203200,1986,3,7,5,5909
7.71875,7.96875,7.90625,7.71875,428000,1986,3,10,1,5912
7.703125,7.921875,7.703125,7.890625,742400,1986,3,11,2,5913
7.875,8.15625,7.875,8.03125,964800,1986,3,12,3,5914
7.921875,8.125,8.0625,8.09375,636000,1986,3,13,4,5915
7.53125,8.125,8.0625,8.0625,1812800,1986,3,14,5,5916
7.78125,8.0625,7.96875,7.984375,766400,1986,3,17,1,5919
7.8125,7.984375,7.96875,7.953125,484800,1986,3,18,2,5920
7.8125,7.96875,7.921875,7.90625,692000,1986,3,19,3,5921
7.875,8.0625,7.90625,8.0625,1108000,1986,3,20,4,5922
8.0625,8.21875,8.125,8.15625,1337600,1986,3,21,5,5923
8.125,8.265625,8.21875,8.203125,1558400,1986,3,24,1,5926
7.9375,8.1875,8.1875,8.109375,685600,1986,3,25,2,5927
8.015625,8.109375,8.109375,8.046875,904000,1986,3,26,3,5928
8.0,8.109375,8.09375,8.015625,678400,1986,3,27,4,5929
8.03125,8.109375,8.078125,8.078125,582400,1986,3,31,1,5933
8.015625,8.109375,8.109375,8.015625,619200,1986,4,1,2,5934
7.96875,8.046875,8.03125,8.046875,1211200,1986,4,2,3,5935
7.9375,8.078125,8.046875,7.96875,392800,1986,4,3,4,5936
7.59375,8.09375,7.9375,7.59375,819200,1986,4,4,5,5937
7.546875,7.65625,7.59375,7.65625,560800,1986,4,7,1,5940
7.640625,7.875,7.671875,7.75,503200,1986,4,8,2,5941
7.609375,7.890625,7.8125,7.625,917600,1986,4,9,3,5942
7.375,7.65625,7.65625,7.59375,1039200,1986,4,10,4,5943
7.546875,7.65625,7.578125,7.625,458400,1986,4,11,5,5944
7.53125,7.671875,7.65625,7.625,730400,1986,4,14,1,5947
7.625,7.734375,7.65625,7.640625,269600,1986,4,15,2,5948
7.71875,8.28125,7.71875,8.25,1074400,1986,4,16,3,5949
7.9375,8.234375,8.1875,8.0,801600,1986,4,17,4,5950
7.640625,8.046875,8.03125,8.03125,1028000,1986,4,18,5,5951
8.0,8.109375,8.09375,8.078125,858400,1986,4,21,1,5954
8.125,8.28125,8.21875,8.25,1219200,1986,4,22,2,5955
8.1875,8.28125,8.25,8.25,945600,1986,4,23,3,5956
8.1875,8.265625,8.1875,8.203125,652800,1986,4,24,4,5957
8.15625,8.234375,8.203125,8.234375,555200,1986,4,25,5,5958
8.15625,8.265625,8.234375,8.234375,561600,1986,4,28,1,5961
8.015625,8.203125,8.203125,8.09375,452000,1986,4,29,2,5962
8.09375,8.28125,8.171875,8.125,1053600,1986,4,30,3,5963
8.03125,8.25,8.09375,8.234375,796000,1986,5,1,4,5964
8.125,8.265625,8.203125,8.203125,712800,1986,5,2,5,5965
8.125,8.25,8.171875,8.21875,431200,1986,5,5,1,5968
8.09375,8.1875,8.09375,8.09375,180800,1986,5,6,2,5969
8.09375,8.25,8.140625,8.234375,590400,1986,5,7,3,5970
8.03125,8.28125,8.28125,8.046875,355200,1986,5,8,4,5971
7.921875,8.015625,8.015625,7.921875,398400,1986,5,9,5,5972
7.796875,7.953125,7.9375,7.796875,1021600,1986,5,12,1,5975
7.65625,7.796875,7.796875,7.703125,651200,1986,5,13,2,5976
7.625,7.734375,7.71875,7.625,809600,1986,5,14,3,5977
7.4375,7.640625,7.640625,7.46875,608000,1986,5,15,4,5978
7.3125,7.5,7.4375,7.5,1061600,1986,5,16,5,5979
7.515625,7.625,7.53125,7.609375,737600,1986,5,19,1,5982
7.5625,7.75,7.609375,7.734375,799200,1986,5,20,2,5983
7.640625,7.796875,7.75,7.75,1017600,1986,5,21,3,5984
7.734375,7.90625,7.75,7.90625,465600,1986,5,22,4,5985
7.890625,8.03125,7.921875,8.015625,533600,1986,5,23,5,5986
7.953125,8.015625,7.984375,7.984375,221600,1986,5,27,2,5990
7.875,8.0,7.984375,7.953125,617600,1986,5,28,3,5991
7.8125,7.9375,7.921875,7.9375,1089600,1986,5,29,4,5992
7.828125,7.90625,7.875,7.890625,1028000,1986,5,30,5,5993
7.875,7.953125,7.90625,7.953125,1261600,1986,6,2,1,5996
7.90625,7.953125,7.921875,7.953125,451200,1986,6,3,2,5997
7.96875,8.109375,7.984375,8.09375,777600,1986,6,4,3,5998
8.015625,8.109375,8.09375,8.109375,804800,1986,6,5,4,5999
7.890625,8.09375,8.078125,7.921875,664800,1986,6,6,5,6000
7.578125,7.890625,7.890625,7.625,507200,1986,6,9,1,6003
7.59375,7.71875,7.609375,7.65625,776800,1986,6,10,2,6004
7.625,7.734375,7.671875,7.71875,693600,1986,6,11,3,6005
7.640625,7.859375,7.6875,7.859375,357600,1986,6,12,4,6006
7.84375,8.03125,7.84375,8.03125,600000,1986,6,13,5,6007
7.9375,8.0625,8.0,8.0625,724000,1986,6,16,1,6010
7.859375,8.0625,8.0625,7.96875,438400,1986,6,17,2,6011
7.828125,7.96875,7.96875,7.921875,331200,1986,6,18,3,6012
7.6875,7.9375,7.921875,7.78125,492000,1986,6,19,4,6013
7.765625,7.875,7.78125,7.84375,617600,1986,6,20,5,6014
7.78125,7.9375,7.875,7.90625,881600,1986,6,23,1,6017
7.890625,8.109375,7.9375,8.0625,989600,1986,6,24,2,6018
8.078125,8.171875,8.109375,8.171875,1040000,1986,6,25,3,6019
8.21875,8.6875,8.34375,8.6875,1207200,1986,6,26,4,6020
8.53125,8.65625,8.65625,8.59375,572000,1986,6,27,5,6021
8.5,8.640625,8.5625,8.515625,396000,1986,6,30,1,6024
8.46875,8.546875,8.5,8.53125,1366400,1986,7,1,2,6025
8.4375,8.53125,8.53125,8.46875,1432800,1986,7,2,3,6026
8.3125,8.484375,8.484375,8.421875,1009600,1986,7,3,4,6027
8.15625,8.453125,8.453125,8.15625,603200,1986,7,7,1,6031
7.765625,8.0,8.0,7.9375,1141600,1986,7,8,2,6032
7.828125,7.96875,7.9375,7.921875,952800,1986,7,9,3,6033
7.703125,7.921875,7.921875,7.84375,696000,1986,7,10,4,6034
7.78125,7.875,7.875,7.875,1339200,1986,7,11,5,6035
7.71875,7.84375,7.84375,7.765625,626400,1986,7,14,1,6038
7.5,7.75,7.71875,7.53125,1178400,1986,7,15,2,6039
7.515625,7.671875,7.625,7.515625,808800,1986,7,16,3,6040
7.5,7.671875,7.5,7.640625,1128000,1986,7,17,4,6041
7.65625,7.90625,7.75,7.78125,808800,1986,7,18,5,6042
7.65625,7.75,7.75,7.71875,498400,1986,7,21,1,6045
7.6875,7.875,7.6875,7.875,740000,1986,7,22,2,6046
7.8125,7.984375,7.859375,7.96875,1444000,1986,7,23,3,6047
7.9375,8.0625,7.96875,8.0625,552000,1986,7,24,4,6048
7.96875,8.09375,8.078125,8.09375,448000,1986,7,25,5,6049
7.8125,8.09375,8.078125,7.8125,580000,1986,7,28,1,6052
7.765625,7.828125,7.828125,7.78125,768800,1986,7,29,2,6053
7.65625,7.796875,7.78125,7.703125,514400,1986,7,30,3,6054
7.65625,7.734375,7.734375,7.703125,704800,1986,7,31,4,6055
7.59375,7.6875,7.6875,7.59375,1102400,1986,8,1,5,6056
7.5,7.859375,7.5625,7.859375,620800,1986,8,4,1,6059
7.71875,7.875,7.71875,7.71875,760800,1986,8,5,2,6060
7.53125,7.640625,7.625,7.5625,532800,1986,8,6,3,6061
7.484375,7.625,7.59375,7.5,768800,1986,8,7,4,6062
7.40625,7.546875,7.546875,7.53125,616800,1986,8,8,5,6063
7.53125,7.859375,7.5625,7.859375,1471200,1986,8,11,1,6066
7.78125,7.984375,7.828125,7.921875,952000,1986,8,12,2,6067
7.921875,8.25,7.921875,8.1875,2211200,1986,8,13,3,6068
8.203125,8.28125,8.234375,8.234375,1181600,1986,8,14,4,6069
8.15625,8.3125,8.3125,8.265625,1148000,1986,8,15,5,6070
8.125,8.25,8.25,8.21875,1219200,1986,8,18,1,6073
8.171875,8.203125,8.1875,8.171875,1656000,1986,8,19,2,6074
8.1875,8.359375,8.203125,8.359375,1321600,1986,8,20,3,6075
8.34375,8.5,8.375,8.4375,1935200,1986,8,21,4,6076
8.34375,8.46875,8.46875,8.375,779200,1986,8,22,5,6077
8.28125,8.359375,8.34375,8.296875,586400,1986,8,25,1,6080
8.296875,8.5,8.296875,8.46875,1156800,1986,8,26,2,6081
8.4375,8.53125,8.453125,8.53125,981600,1986,8,27,3,6082
8.5,8.671875,8.53125,8.640625,1001600,1986,8,28,4,6083
8.59375,8.796875,8.59375,8.71875,3828000,1986,8,29,5,6084
8.453125,8.71875,8.71875,8.46875,1000000,1986,9,2,2,6088
8.375,8.625,8.46875,8.625,1630400,1986,9,3,3,6089
8.640625,9.0,8.65625,8.890625,2874400,1986,9,4,4,6090
8.625,8.921875,8.875,8.671875,1639200,1986,9,5,5,6091
8.515625,8.78125,8.59375,8.75,1348000,1986,9,8,1,6094
8.625,8.859375,8.78125,8.65625,1900800,1986,9,9,2,6095
8.5625,8.8125,8.65625,8.8125,1460000,1986,9,10,3,6096
8.4375,8.8125,8.8125,8.46875,2055200,1986,9,11,4,6097
8.1875,8.5,8.484375,8.34375,2328800,1986,9,12,5,6098
8.390625,8.484375,8.46875,8.4375,1860800,1986,9,15,1,6101
8.375,8.484375,8.4375,8.453125,1300800,1986,9,16,2,6102
8.34375,8.484375,8.453125,8.34375,1265600,1986,9,17,3,6103
8.3125,8.40625,8.34375,8.359375,861600,1986,9,18,4,6104
8.28125,8.421875,8.359375,8.421875,1069600,1986,9,19,5,6105
8.34375,8.4375,8.390625,8.421875,415200,1986,9,22,1,6108
8.421875,8.546875,8.4375,8.546875,1432800,1986,9,23,2,6109
8.390625,8.5625,8.5,8.5625,820800,1986,9,24,3,6110
8.3125,8.5625,8.5625,8.375,1181600,1986,9,25,4,6111
8.25,8.359375,8.34375,8.3125,456000,1986,9,26,5,6112
7.9375,8.28125,8.28125,8.0,1515200,1986,9,29,1,6115
7.96875,8.0625,7.96875,8.015625,930400,1986,9,30,2,6116
8.015625,8.1875,8.046875,8.125,1239200,1986,10,1,3,6117
8.109375,8.203125,8.171875,8.109375,648800,1986,10,2,4,6118
8.015625,8.1875,8.078125,8.078125,416000,1986,10,3,5,6119
8.03125,8.15625,8.046875,8.0625,403200,1986,10,6,1,6122
8.046875,8.140625,8.078125,8.078125,541600,1986,10,7,2,6123
8.078125,8.21875,8.109375,8.1875,1105600,1986,10,8,3,6124
8.21875,8.28125,8.21875,8.21875,1460800,1986,10,9,4,6125
8.140625,8.203125,8.203125,8.15625,465600,1986,10,10,5,6126
8.0625,8.171875,8.140625,8.09375,108000,1986,10,13,1,6129
8.125,8.25,8.125,8.21875,656000,1986,10,14,2,6130
8.203125,8.484375,8.46875,8.46875,475200,1986,10,15,3,6131
8.46875,8.59375,8.5,8.5625,1509600,1986,10,16,4,6132
8.5625,8.609375,8.59375,8.609375,647200,1986,10,17,5,6133
8.5,8.578125,8.578125,8.5,1486400,1986,10,20,1,6136
8.375,8.5,8.5,8.453125,1067200,1986,10,21,2,6137
8.453125,8.578125,8.484375,8.5625,874400,1986,10,22,3,6138
8.5625,8.671875,8.59375,8.625,798400,1986,10,23,4,6139
8.578125,8.6875,8.65625,8.578125,660000,1986,10,24,5,6140
8.515625,8.609375,8.59375,8.5625,717600,1986,10,27,1,6143
8.5,8.65625,8.59375,8.609375,1252000,1986,10,28,2,6144
8.625,8.734375,8.625,8.734375,1340800,1986,10,29,3,6145
8.65625,8.796875,8.75,8.703125,2224000,1986,10,30,4,6146
8.546875,8.734375,8.734375,8.640625,956000,1986,10,31,5,6147
8.625,8.75,8.65625,8.75,1692800,1986,11,3,1,6150
8.640625,8.703125,8.671875,8.671875,1818400,1986,11,4,2,6151
8.65625,8.84375,8.671875,8.796875,1663200,1986,11,5,3,6152
8.71875,8.84375,8.765625,8.8125,863200,1986,11,6,4,6153
8.734375,8.890625,8.78125,8.84375,1085600,1986,11,7,5,6154
8.6875,8.8125,8.8125,8.734375,815200,1986,11,10,1,6157
8.65625,8.796875,8.703125,8.78125,1544000,1986,11,11,2,6158
8.625,8.796875,8.78125,8.71875,776000,1986,11,12,3,6159
8.6875,8.765625,8.734375,8.6875,1657600,1986,11,13,4,6160
8.71875,8.9375,8.734375,8.890625,1803200,1986,11,14,5,6161
8.75,8.859375,8.828125,8.75,1086400,1986,11,17,1,6164
8.578125,8.796875,8.78125,8.578125,1169600,1986,11,18,2,6165
8.578125,8.75,8.59375,8.75,869600,1986,11,19,3,6166
8.65625,8.796875,8.78125,8.734375,1061600,1986,11,20,4,6167
8.703125,8.828125,8.734375,8.78125,2249600,1986,11,21,5,6168
8.75,8.90625,8.78125,8.859375,1480000,1986,11,24,1,6171
8.875,9.125,8.875,9.0625,1718400,1986,11,25,2,6172
9.046875,9.25,9.0625,9.203125,897600,1986,11,26,3,6173
9.171875,9.28125,9.203125,9.28125,1002400,1986,11,28,5,6175
9.046875,9.28125,9.28125,9.234375,995200,1986,12,1,1,6178
9.234375,9.453125,9.3125,9.40625,1941600,1986,12,2,2,6179
9.40625,9.625,9.40625,9.5625,2039200,1986,12,3,3,6180
9.46875,9.703125,9.59375,9.46875,2061600,1986,12,4,4,6181
9.21875,9.578125,9.40625,9.359375,1144800,1986,12,5,5,6182
9.21875,9.4375,9.34375,9.359375,944800,1986,12,8,1,6185
9.21875,9.53125,9.4375,9.21875,876000,1986,12,9,2,6186
9.21875,9.375,9.21875,9.34375,1076000,1986,12,10,3,6187
9.21875,9.5,9.34375,9.25,1772800,1986,12,11,4,6188
9.109375,9.28125,9.25,9.1875,619200,1986,12,12,5,6189
9.0,9.15625,9.15625,9.078125,850400,1986,12,15,1,6192
9.0625,9.21875,9.1875,9.21875,1204800,1986,12,16,2,6193
9.1875,9.28125,9.25,9.28125,716800,1986,12,17,3,6194
9.09375,9.40625,9.25,9.15625,1108000,1986,12,18,4,6195
9.125,9.375,9.1875,9.375,1775200,1986,12,19,5,6196
9.09375,9.28125,9.25,9.21875,1244800,1986,12,22,1,6199
9.125,9.21875,9.21875,9.203125,1052800,1986,12,23,2,6200
9.15625,9.203125,9.203125,9.1875,1071200,1986,12,24,3,6201
9.171875,9.21875,9.203125,9.171875,221600,1986,12,26,5,6203
9.125,9.21875,9.171875,9.15625,745600,1986,12,29,1,6206
9.03125,9.15625,9.140625,9.03125,908000,1986,12,30,2,6207
9.03125,9.15625,9.046875,9.109375,940800,1986,12,31,3,6208
9.046875,9.3125,9.078125,9.3125,824000,1987,1,2,5,6210
9.328125,9.4375,9.328125,9.421875,1616800,1987,1,5,1,6213
9.390625,9.625,9.453125,9.421875,2948800,1987,1,6,2,6214
9.34375,9.5625,9.34375,9.5625,1420000,1987,1,7,3,6215
9.5625,9.78125,9.625,9.75,1454400,1987,1,8,4,6216
9.71875,9.921875,9.78125,9.8125,910400,1987,1,9,5,6217
9.75,10.1875,9.78125,10.15625,1405600,1987,1,12,1,6220
10.015625,10.15625,10.15625,10.03125,1028000,1987,1,13,2,6221
9.890625,10.09375,10.0,10.078125,1489600,1987,1,14,3,6222
10.0625,10.1875,10.09375,10.125,1710400,1987,1,15,4,6223
10.125,10.3125,10.15625,10.15625,1640000,1987,1,16,5,6224
9.9375,10.15625,10.03125,10.125,1085600,1987,1,19,1,6227
10.125,10.46875,10.15625,10.40625,1477600,1987,1,20,2,6228
9.9375,10.40625,10.40625,10.0,1445600,1987,1,21,3,6229
10.0625,10.359375,10.0625,10.3125,920800,1987,1,22,4,6230
10.15625,10.875,10.375,10.40625,2648800,1987,1,23,5,6231
10.1875,10.34375,10.34375,10.25,965600,1987,1,26,1,6234
10.28125,10.5625,10.28125,10.421875,932800,1987,1,27,2,6235
10.40625,10.6875,10.4375,10.59375,985600,1987,1,28,3,6236
10.65625,10.75,10.71875,10.734375,980000,1987,1,29,4,6237
10.5,10.90625,10.765625,10.875,831200,1987,1,30,5,6238
10.84375,11.125,10.921875,11.0625,1322400,1987,2,2,1,6241
10.9375,11.15625,11.078125,11.03125,1951200,1987,2,3,2,6242
10.9375,11.078125,11.078125,11.0625,899200,1987,2,4,3,6243
10.875,11.09375,11.0625,10.90625,1313600,1987,2,5,4,6244
10.890625,11.03125,10.953125,10.96875,667200,1987,2,6,5,6245
10.78125,10.96875,10.96875,10.875,776000,1987,2,9,1,6248
10.3125,10.609375,10.5,10.5,1310400,1987,2,10,2,6249
10.421875,10.71875,10.5,10.71875,499200,1987,2,11,3,6250
10.5,10.84375,10.71875,10.5625,948800,1987,2,12,4,6251
10.5625,10.75,10.625,10.734375,797600,1987,2,13,5,6252
10.46875,10.6875,10.5,10.6875,1221600,1987,2,17,2,6256
10.796875,11.0625,11.046875,10.90625,1248800,1987,2,18,3,6257
10.890625,10.9375,10.9375,10.90625,987200,1987,2,19,4,6258
10.78125,10.90625,10.875,10.8125,502400,1987,2,20,5,6259
10.5,10.8125,10.75,10.640625,1544000,1987,2,23,1,6262
10.484375,10.609375,10.578125,10.578125,1500000,1987,2,24,2,6263
10.46875,10.578125,10.546875,10.5,1120800,1987,2,25,3,6264
10.46875,10.59375,10.5,10.578125,695200,1987,2,26,4,6265
10.46875,10.5625,10.546875,10.53125,3137600,1987,2,27,5,6266
10.46875,10.59375,10.5,10.59375,556800,1987,3,2,1,6269
10.5,10.625,10.5625,10.625,527200,1987,3,3,2,6270
10.5625,10.703125,10.65625,10.59375,1098400,1987,3,4,3,6271
10.53125,10.640625,10.59375,10.5625,1231200,1987,3,5,4,6272
10.59375,10.6875,10.609375,10.640625,1818400,1987,3,6,5,6273
10.625,10.984375,10.71875,10.875,809600,1987,3,9,1,6276
10.828125,10.96875,10.9375,10.90625,589600,1987,3,10,2,6277
10.890625,11.09375,11.03125,10.921875,720800,1987,3,11,3,6278
10.90625,11.0,10.984375,10.984375,492000,1987,3,12,4,6279
10.75,11.25,10.875,10.875,522400,1987,3,13,5,6280
10.625,10.90625,10.90625,10.71875,509200,1987,3,16,1,6283
10.625,11.25,10.65625,11.15625,621200,1987,3,17,2,6284
11.125,11.3125,11.21875,11.25,578000,1987,3,18,3,6285
11.1875,11.5,11.25,11.46875,682800,1987,3,19,4,6286
11.375,11.875,11.5,11.875,1208800,1987,3,20,5,6287
11.8125,12.3125,11.875,12.25,1698000,1987,3,23,1,6290
11.90625,12.4375,12.25,12.0,993600,1987,3,24,2,6291
11.875,12.25,12.1875,12.0625,1198400,1987,3,25,3,6292
12.0625,12.40625,12.125,12.09375,455600,1987,3,26,4,6293
11.3125,11.875,11.8125,11.53125,654800,1987,3,27,5,6294
10.6875,11.25,10.75,11.09375,1630000,1987,3,30,1,6297
10.90625,11.1875,11.125,11.03125,819200,1987,3,31,2,6298
11.0,11.5625,11.09375,11.3125,998800,1987,4,1,3,6299
11.34375,11.53125,11.375,11.5,786000,1987,4,2,4,6300
11.09375,11.75,11.3125,11.75,619200,1987,4,3,5,6301
11.8125,12.125,11.8125,12.03125,697600,1987,4,6,1,6304
11.84375,12.21875,12.03125,11.84375,558400,1987,4,7,2,6305
11.125,11.8125,11.78125,11.71875,715200,1987,4,8,3,6306
11.28125,11.71875,11.65625,11.28125,429600,1987,4,9,4,6307
11.0,11.40625,11.1875,11.15625,586000,1987,4,10,5,6308
10.25,11.21875,11.21875,10.5,832800,1987,4,13,1,6311
10.15625,10.5625,10.3125,10.21875,1661600,1987,4,14,2,6312
10.1875,10.5625,10.5,10.375,821200,1987,4,15,3,6313
10.53125,10.8125,10.5625,10.75,781200,1987,4,16,4,6314
10.4375,10.875,10.8125,10.5,558000,1987,4,20,1,6318
10.28125,10.6875,10.40625,10.6875,612400,1987,4,21,2,6319
10.125,10.6875,10.6875,10.25,946800,1987,4,22,3,6320
9.90625,10.375,10.25,10.0625,1186000,1987,4,23,4,6321
9.625,10.03125,10.0,9.71875,792800,1987,4,24,5,6322
9.3125,9.9375,9.65625,9.875,2089200,1987,4,27,1,6325
9.875,10.09375,9.9375,9.875,789200,1987,4,28,2,6326
9.9375,10.25,10.0,10.09375,1150400,1987,4,29,3,6327
10.125,10.40625,10.25,10.40625,748000,1987,4,30,4,6328
10.34375,10.6875,10.46875,10.59375,1080400,1987,5,1,5,6329
10.40625,10.625,10.53125,10.40625,913200,1987,5,4,1,6332
10.34375,10.59375,10.46875,10.46875,1291600,1987,5,5,2,6333
10.46875,10.71875,10.5,10.6875,786800,1987,5,6,3,6334
10.59375,10.78125,10.71875,10.625,926000,1987,5,7,4,6335
10.5,10.75,10.71875,10.6875,798000,1987,5,8,5,6336
10.59375,10.78125,10.625,10.65625,1415200,1987,5,11,1,6339
10.34375,10.625,10.375,10.53125,698000,1987,5,12,2,6340
10.21875,10.5625,10.5625,10.4375,905600,1987,5,13,3,6341
10.21875,10.5,10.5,10.3125,675200,1987,5,14,4,6342
9.96875,10.4375,10.375,10.0,817600,1987,5,15,5,6343
9.59375,10.0,9.9375,9.84375,852000,1987,5,18,1,6346
9.375,9.8125,9.8125,9.46875,1039200,1987,5,19,2,6347
9.125,9.5625,9.5,9.3125,1605200,1987,5,20,3,6348
9.1875,9.5,9.4375,9.1875,875200,1987,5,21,4,6349
9.25,9.46875,9.3125,9.3125,618800,1987,5,22,5,6350
9.46875,9.71875,9.5,9.71875,633200,1987,5,26,2,6354
9.5625,9.875,9.65625,9.75,672000,1987,5,27,3,6355
9.5,9.84375,9.8125,9.65625,850400,1987,5,28,4,6356
9.625,9.71875,9.6875,9.71875,1093200,1987,5,29,5,6357
9.59375,9.90625,9.71875,9.8125,1023600,1987,6,1,1,6360
9.65625,10.0,9.75,9.96875,614000,1987,6,2,2,6361
9.65625,10.0,9.90625,9.90625,1229600,1987,6,3,3,6362
9.90625,10.21875,9.90625,10.1875,1046400,1987,6,4,4,6363
10.0625,10.3125,10.21875,10.125,822800,1987,6,5,5,6364
9.96875,10.21875,10.1875,10.0625,561600,1987,6,8,1,6367
9.9375,10.21875,9.96875,10.125,799600,1987,6,9,2,6368
10.09375,10.3125,10.25,10.21875,1170800,1987,6,10,3,6369
10.09375,10.28125,10.21875,10.28125,830800,1987,6,11,4,6370
10.15625,10.3125,10.28125,10.3125,1228000,1987,6,12,5,6371
10.28125,10.4375,10.34375,10.4375,708000,1987,6,15,1,6374
10.375,10.96875,10.4375,10.96875,2381600,1987,6,16,2,6375
10.9375,11.625,11.0,11.53125,2495200,1987,6,17,3,6376
11.53125,12.25,11.5625,12.0,2391600,1987,6,18,4,6377
11.5625,12.4375,12.125,11.875,1922800,1987,6,19,5,6378
12.0,12.40625,12.125,12.40625,1819600,1987,6,22,1,6381
12.34375,13.375,12.375,12.5,3246800,1987,6,23,2,6382
12.3125,12.6875,12.34375,12.5,1883200,1987,6,24,3,6383
12.0,12.53125,12.4375,12.0625,1936400,1987,6,25,4,6384
11.9375,12.3125,12.0,12.125,1087200,1987,6,26,5,6385
12.0625,12.5,12.25,12.0625,1318000,1987,6,29,1,6388
11.6875,12.15625,12.03125,11.75,1732400,1987,6,30,2,6389
11.375,11.75,11.625,11.5,1768000,1987,7,1,3,6390
11.40625,11.6875,11.53125,11.40625,1036800,1987,7,2,4,6391
11.40625,12.0,11.5,11.5625,1564400,1987,7,6,1,6395
11.6875,12.09375,11.71875,12.0625,1748800,1987,7,7,2,6396
11.9375,12.4375,12.0,12.34375,1861600,1987,7,8,3,6397
12.125,12.8125,12.375,12.34375,2982800,1987,7,9,4,6398
12.1875,12.5625,12.375,12.34375,1258400,1987,7,10,5,6399
12.125,12.3125,12.28125,12.28125,1294800,1987,7,13,1,6402
12.09375,12.3125,12.28125,12.125,843600,1987,7,14,2,6403
11.9375,12.1875,12.09375,12.0625,825200,1987,7,15,3,6404
12.0,12.25,12.25,12.125,1436400,1987,7,16,4,6405
12.03125,12.1875,12.15625,12.09375,881200,1987,7,17,5,6406
11.8125,12.125,11.9375,11.9375,1275600,1987,7,20,1,6409
11.53125,11.90625,11.875,11.5625,1709600,1987,7,21,2,6410
11.5625,12.125,11.78125,12.09375,1846000,1987,7,22,3,6411
11.8125,12.09375,12.09375,11.875,645200,1987,7,23,4,6412
11.71875,12.0,11.96875,11.78125,808800,1987,7,24,5,6413
11.6875,12.0,11.8125,11.8125,467600,1987,7,27,1,6416
11.59375,11.875,11.84375,11.78125,806000,1987,7,28,2,6417
11.78125,11.90625,11.84375,11.84375,1122400,1987,7,29,3,6418
11.875,12.25,11.875,12.09375,1800000,1987,7,30,4,6419
12.0625,12.75,12.125,12.40625,1598400,1987,7,31,5,6420
12.1875,12.59375,12.25,12.28125,1555600,1987,8,3,1,6423
11.90625,12.28125,12.03125,12.03125,1030800,1987,8,4,2,6424
12.0625,12.46875,12.09375,12.0625,1618400,1987,8,5,3,6425
11.90625,12.21875,12.03125,12.21875,1084000,1987,8,6,4,6426
12.125,12.34375,12.15625,12.15625,1004400,1987,8,7,5,6427
12.125,12.3125,12.21875,12.28125,518000,1987,8,10,1,6430
12.125,12.4375,12.34375,12.15625,1504000,1987,8,11,2,6431
12.125,12.4375,12.21875,12.25,1993200,1987,8,12,3,6432
12.125,12.59375,12.34375,12.4375,3560800,1987,8,13,4,6433
12.25,12.53125,12.46875,12.3125,1664800,1987,8,14,5,6434
12.15625,12.375,12.25,12.21875,1200800,1987,8,17,1,6437
11.75,12.21875,12.15625,11.90625,765200,1987,8,18,2,6438
11.625,11.96875,11.8125,11.96875,1087600,1987,8,19,3,6439
11.78125,12.125,11.9375,11.9375,1305600,1987,8,20,4,6440
11.875,12.1875,12.0,12.09375,1856000,1987,8,21,5,6441
11.34375,12.125,12.09375,11.9375,974800,1987,8,24,1,6444
11.8125,12.09375,11.9375,11.875,2133600,1987,8,25,2,6445
11.90625,12.09375,12.0,12.0,1095200,1987,8,26,3,6446
11.9375,12.21875,12.03125,12.125,1114000,1987,8,27,4,6447
11.8125,12.21875,12.0625,11.8125,794400,1987,8,28,5,6448
11.8125,12.15625,11.9375,12.15625,1075200,1987,8,31,1,6451
11.9375,12.5625,12.0,12.34375,2578800,1987,9,1,2,6452
12.03125,12.40625,12.375,12.1875,1850400,1987,9,2,3,6453
11.53125,12.1875,12.125,11.71875,1555600,1987,9,3,4,6454
11.375,12.0,11.84375,11.5,1059200,1987,9,4,5,6455
11.125,11.5625,11.40625,11.3125,1324400,1987,9,8,2,6459
10.9375,11.34375,11.28125,11.0625,1769200,1987,9,9,3,6460
11.0625,11.21875,11.15625,11.09375,1961200,1987,9,10,4,6461
11.09375,11.5,11.375,11.3125,1462400,1987,9,11,5,6462
11.25,11.4375,11.3125,11.40625,1116800,1987,9,14,1,6465
11.15625,11.40625,11.40625,11.1875,1028400,1987,9,15,2,6466
11.0625,11.3125,11.3125,11.125,2021200,1987,9,16,3,6467
10.78125,11.46875,11.21875,11.46875,2184400,1987,9,17,4,6468
11.375,11.78125,11.71875,11.53125,2810400,1987,9,18,5,6469
11.1875,11.625,11.5625,11.28125,1180000,1987,9,21,1,6472
11.0625,11.5,11.375,11.40625,896000,1987,9,22,2,6473
11.34375,11.5625,11.40625,11.40625,1238400,1987,9,23,3,6474
11.3125,11.53125,11.375,11.375,866000,1987,9,24,4,6475
11.28125,11.40625,11.3125,11.375,568000,1987,9,25,5,6476
11.375,11.5,11.4375,11.4375,1240400,1987,9,28,1,6479
11.375,11.5,11.4375,11.5,652000,1987,9,29,2,6480
11.21875,11.5625,11.5,11.3125,1635200,1987,9,30,3,6481
11.34375,11.6875,11.375,11.65625,3055600,1987,10,1,4,6482
11.625,11.6875,11.65625,11.625,604000,1987,10,2,5,6483
11.5625,11.71875,11.59375,11.71875,522400,1987,10,5,1,6486
11.53125,11.6875,11.65625,11.5625,1191200,1987,10,6,2,6487
11.34375,11.59375,11.59375,11.375,974800,1987,10,7,3,6488
11.125,11.4375,11.4375,11.21875,1002800,1987,10,8,4,6489
11.0,11.3125,11.1875,11.0625,1302800,1987,10,9,5,6490
10.8125,11.0,11.0,10.9375,1233600,1987,10,12,1,6493
10.96875,11.25,11.0625,11.1875,1670800,1987,10,13,2,6494
10.8125,11.125,11.0,10.9375,730000,1987,10,14,3,6495
10.5,10.90625,10.84375,10.5625,1977200,1987,10,15,4,6496
9.9375,10.625,10.53125,10.0,2075200,1987,10,16,5,6497
7.75,9.75,9.75,7.9375,3679200,1987,10,19,1,6500
7.25,8.375,7.8125,7.75,7401600,1987,10,20,2,6501
8.28125,9.0,8.3125,8.875,5020800,1987,10,21,3,6502
7.9375,8.71875,8.625,8.25,3896400,1987,10,22,4,6503
7.875,8.3125,8.03125,8.0,2158400,1987,10,23,5,6504
7.25,7.75,7.625,7.4375,1717600,1987,10,26,1,6507
7.125,7.6875,7.5,7.375,1009200,1987,10,27,2,6508
6.875,7.25,6.875,7.03125,1024400,1987,10,28,3,6509
7.125,7.5,7.21875,7.34375,1152000,1987,10,29,4,6510
7.5,7.8125,7.65625,7.65625,2007600,1987,10,30,5,6511
7.8125,8.3125,7.8125,8.3125,752000,1987,11,2,1,6514
8.0,8.5,8.25,8.5,1576400,1987,11,3,2,6515
8.21875,8.625,8.40625,8.25,846400,1987,11,4,3,6516
8.125,8.59375,8.15625,8.5,1138400,1987,11,5,4,6517
8.25,8.75,8.6875,8.25,485200,1987,11,6,5,6518
7.65625,8.25,8.25,7.65625,1444000,1987,11,9,1,6521
7.25,7.5,7.375,7.25,1305200,1987,11,10,2,6522
7.25,7.875,7.25,7.65625,1202800,1987,11,11,3,6523
7.8125,8.25,7.8125,8.0625,968800,1987,11,12,4,6524
7.75,8.3125,8.21875,7.75,639600,1987,11,13,5,6525
7.9375,8.25,7.9375,7.96875,1096000,1987,11,16,1,6528
7.78125,8.0625,8.03125,8.0625,653600,1987,11,17,2,6529
8.0,8.4375,8.0,8.34375,1274800,1987,11,18,3,6530
8.25,8.625,8.3125,8.3125,1178000,1987,11,19,4,6531
8.1875,8.78125,8.25,8.75,968800,1987,11,20,5,6532
8.625,8.78125,8.75,8.78125,1166400,1987,11,23,1,6535
8.71875,8.9375,8.71875,8.875,2592400,1987,11,24,2,6536
8.4375,8.875,8.875,8.625,1238800,1987,11,25,3,6537
8.375,8.59375,8.5625,8.40625,481600,1987,11,27,5,6539
7.8125,8.375,8.125,8.0,1590400,1987,11,30,1,6542
7.9375,8.3125,8.0,8.1875,1116000,1987,12,1,2,6543
8.0,8.28125,8.1875,8.21875,450400,1987,12,2,3,6544
7.78125,8.21875,8.15625,7.78125,1567200,1987,12,3,4,6545
7.625,7.9375,7.78125,7.71875,1307200,1987,12,4,5,6546
7.65625,8.125,7.65625,7.90625,615200,1987,12,7,1,6549
7.71875,8.125,8.0,7.9375,941200,1987,12,8,2,6550
7.8125,8.34375,7.8125,8.34375,1912800,1987,12,9,3,6551
8.0,8.625,8.125,8.03125,942400,1987,12,10,4,6552
7.875,8.3125,8.0625,8.3125,652800,1987,12,11,5,6553
8.28125,8.71875,8.28125,8.5625,1797200,1987,12,14,1,6556
8.4375,8.875,8.4375,8.8125,637600,1987,12,15,2,6557
8.65625,8.875,8.75,8.8125,565600,1987,12,16,3,6558
8.625,8.90625,8.875,8.6875,1291200,1987,12,17,4,6559
8.8125,8.90625,8.875,8.90625,1926000,1987,12,18,5,6560
8.625,8.875,8.78125,8.75,528000,1987,12,21,1,6563
8.53125,8.8125,8.75,8.6875,650800,1987,12,22,2,6564
8.625,8.78125,8.71875,8.75,683600,1987,12,23,3,6565
8.59375,8.71875,8.6875,8.6875,294000,1987,12,24,4,6566
8.3125,8.53125,8.5,8.40625,364400,1987,12,28,1,6570
8.34375,8.46875,8.4375,8.46875,568800,1987,12,29,2,6571
8.375,8.53125,8.375,8.4375,595600,1987,12,30,3,6572
8.28125,8.59375,8.375,8.28125,601600,1987,12,31,4,6573
8.375,9.25,8.4375,8.9375,664000,1988,1,4,1,6577
8.8125,9.125,9.125,9.0,1014800,1988,1,5,2,6578
8.875,9.1875,9.0,9.09375,1475600,1988,1,6,3,6579
8.8125,9.3125,9.09375,9.0625,2387600,1988,1,7,4,6580
8.1875,9.03125,9.0,8.1875,970000,1988,1,8,5,6581
8.15625,8.4375,8.25,8.375,759200,1988,1,11,1,6584
8.1875,8.46875,8.375,8.375,528000,1988,1,12,2,6585
8.125,8.4375,8.28125,8.25,454800,1988,1,13,3,6586
8.0625,8.40625,8.3125,8.25,1061200,1988,1,14,4,6587
8.25,8.59375,8.4375,8.3125,828000,1988,1,15,5,6588
8.25,8.5,8.3125,8.3125,385200,1988,1,18,1,6591
8.25,8.75,8.25,8.375,737200,1988,1,19,2,6592
7.9375,8.3125,8.28125,8.03125,1120400,1988,1,20,3,6593
7.8125,8.1875,8.125,7.875,1862400,1988,1,21,4,6594
7.90625,8.125,7.9375,8.09375,416000,1988,1,22,5,6595
8.1875,8.59375,8.1875,8.53125,641200,1988,1,25,1,6598
8.3125,8.53125,8.5,8.40625,434000,1988,1,26,2,6599
8.0,8.46875,8.4375,8.1875,718800,1988,1,27,3,6600
8.25,8.5625,8.28125,8.5625,776800,1988,1,28,4,6601
8.3125,8.59375,8.4375,8.5625,601200,1988,1,29,5,6602
8.53125,8.6875,8.53125,8.6875,543200,1988,2,1,1,6605
8.4375,8.6875,8.5,8.6875,670800,1988,2,2,2,6606
8.4375,8.8125,8.6875,8.5625,1468800,1988,2,3,3,6607
8.34375,8.5625,8.5,8.4375,1864800,1988,2,4,4,6608
8.15625,8.46875,8.40625,8.3125,1898000,1988,2,5,5,6609
8.1875,8.40625,8.3125,8.40625,509600,1988,2,8,1,6612
8.40625,8.5625,8.40625,8.5,654800,1988,2,9,2,6613
8.5,8.59375,8.5,8.5625,507200,1988,2,10,3,6614
8.5,8.6875,8.53125,8.65625,434400,1988,2,11,4,6615
8.71875,8.90625,8.71875,8.90625,1358400,1988,2,12,5,6616
8.8125,9.125,8.90625,9.09375,1521600,1988,2,16,2,6620
9.0625,9.375,9.125,9.25,2310800,1988,2,17,3,6621
9.125,9.5,9.1875,9.34375,1151600,1988,2,18,4,6622
9.40625,10.0,9.46875,9.875,2069200,1988,2,19,5,6623
9.625,9.96875,9.84375,9.96875,977600,1988,2,22,1,6626
9.6875,10.09375,9.9375,9.84375,1187200,1988,2,23,2,6627
9.8125,10.25,10.0,9.96875,1755200,1988,2,24,3,6628
9.75,10.375,10.03125,9.75,2220000,1988,2,25,4,6629
9.65625,9.875,9.8125,9.75,818400,1988,2,26,5,6630
9.625,9.9375,9.6875,9.9375,599600,1988,2,29,1,6633
9.75,9.96875,9.9375,9.84375,474000,1988,3,1,2,6634
9.75,9.96875,9.78125,9.96875,486800,1988,3,2,3,6635
10.03125,10.46875,10.09375,10.28125,3058800,1988,3,3,4,6636
9.875,10.25,10.25,10.125,965600,1988,3,4,5,6637
9.9375,10.1875,10.125,10.0625,928800,1988,3,7,1,6640
10.0,10.25,10.15625,10.21875,1054400,1988,3,8,2,6641
9.9375,10.1875,10.15625,9.96875,618400,1988,3,9,3,6642
9.78125,10.0,9.96875,9.875,990800,1988,3,10,4,6643
9.5625,9.84375,9.75,9.6875,728400,1988,3,11,5,6644
9.65625,9.75,9.75,9.6875,418000,1988,3,14,1,6647
9.625,9.78125,9.6875,9.78125,451600,1988,3,15,2,6648
9.65625,9.90625,9.75,9.90625,446000,1988,3,16,3,6649
9.84375,10.125,9.84375,9.9375,766000,1988,3,17,4,6650
9.875,10.0625,9.9375,10.03125,1423600,1988,3,18,5,6651
9.8125,10.03125,9.9375,9.96875,506000,1988,3,21,1,6654
9.96875,10.1875,10.0,10.125,580000,1988,3,22,2,6655
9.9375,10.1875,10.125,9.9375,436000,1988,3,23,3,6656
9.59375,9.875,9.78125,9.78125,1446000,1988,3,24,4,6657
9.53125,9.78125,9.75,9.625,715200,1988,3,25,5,6658
9.375,9.65625,9.625,9.4375,402800,1988,3,28,1,6661
9.375,9.625,9.5625,9.59375,345200,1988,3,29,2,6662
9.5625,9.84375,9.8125,9.65625,670000,1988,3,30,3,6663
9.625,9.8125,9.6875,9.75,414800,1988,3,31,4,6664
9.625,9.84375,9.8125,9.84375,515600,1988,4,4,1,6668
9.75,9.90625,9.8125,9.875,340400,1988,4,5,2,6669
9.84375,10.0625,9.875,10.0625,764400,1988,4,6,3,6670
10.15625,10.3125,10.25,10.28125,1063600,1988,4,7,4,6671
10.25,10.5625,10.25,10.5625,1109600,1988,4,8,5,6672
10.40625,10.65625,10.46875,10.625,1349600,1988,4,11,1,6675
10.5,10.59375,10.5625,10.59375,493600,1988,4,12,2,6676
10.46875,10.625,10.59375,10.5625,611600,1988,4,13,3,6677
9.875,10.375,10.375,9.875,706800,1988,4,14,4,6678
9.75,10.0625,9.875,10.0625,643600,1988,4,15,5,6679
9.90625,10.03125,9.90625,10.03125,538000,1988,4,18,1,6682
9.78125,10.09375,10.0,9.78125,1149200,1988,4,19,2,6683
9.5625,9.78125,9.78125,9.59375,1258800,1988,4,20,3,6684
9.65625,10.1875,9.65625,9.90625,2023600,1988,4,21,4,6685
9.9375,10.21875,9.9375,10.1875,800400,1988,4,22,5,6686
10.0625,10.34375,10.125,10.125,488000,1988,4,25,1,6689
10.09375,10.59375,10.09375,10.59375,1281200,1988,4,26,2,6690
