low,high,open,close,volume,year,days,month_sin,month_cos,day_sin,day_cos,weekday_sin,weekday_cos
-0.028303768013061403,-0.03636764417087483,NaN,-0.01869213301215252,0.13595563623602894,0.16666666666666666,0.16737735086853092,1.0,6.123233995736766e-17,-0.4853019625310808,-0.8743466161445822,0.9749279121818236,-0.22252093395631434
0.01895790826040468,0.0,NaN,0.014052037340057737,-0.8003927109135429,0.16666666666666666,0.1674222361865434,1.0,6.123233995736766e-17,-0.6513724827222217,-0.7587581226927913,0.43388373911755823,-0.900968867902419
-0.009434029517245389,0.0,NaN,0.004640095672094825,1.3527180655862863,0.16666666666666666,0.16746712150455587,1.0,6.123233995736766e-17,-0.7907757369376986,-0.6121059825476627,-0.433883739117558,-0.9009688679024191
0.009434029517245342,-0.00464009567209485,NaN,-0.013985955424751556,-0.27315397188887114,0.16666666666666666,0.16751200682256834,1.0,6.123233995736766e-17,-0.8978045395707417,-0.44039415155763423,-0.9749279121818236,-0.2225209339563146
-0.01418492154194472,0.0,NaN,0.009345859752656789,-0.5612196375173972,0.16666666666666666,0.16764666277660578,1.0,6.123233995736766e-17,-0.9884683243281114,0.15142777750457667,0.7818314824680298,0.6234898018587336
0.014184921541944666,0.004640095672094825,NaN,-0.009345859752656746,0.5612196375173972,0.16666666666666666,0.16769154809461825,1.0,6.123233995736766e-17,-0.9377521321470804,0.3473052528448203,0.9749279121818236,-0.22252093395631434
-0.009434029517245389,0.0,NaN,-0.004706177587400936,-0.08701137698962981,0.16666666666666666,0.16773643341263075,1.0,6.123233995736766e-17,-0.8486442574947509,0.5289640103269624,0.43388373911755823,-0.900968867902419
-0.004750892024699296,-0.01869213301215252,NaN,-0.004727851929844413,0.1611193491433516,0.16666666666666666,0.16778131873064323,1.0,6.123233995736766e-17,-0.7247927872291207,0.6889669190756859,-0.433883739117558,-0.9009688679024191
0.004750892024699322,0.009389740349839137,NaN,0.004727851929844331,-0.7051233716066609,0.16666666666666666,0.1678262040486557,1.0,6.123233995736766e-17,-0.5712682150947924,0.8207634412072763,-0.9749279121818236,-0.2225209339563146
0.014117592279683547,0.0721032939013439,NaN,0.08149303425118301,1.0061094096848047,0.16666666666666666,0.16796086000269314,1.0,6.123233995736766e-17,-2.4492935982947064e-16,1.0,0.7818314824680298,0.6234898018587336
0.045670036833188266,0.0043386658200189636,NaN,-0.017544309650909508,-0.2716584229836237,0.16666666666666666,0.1680057453207056,0.8660254037844387,-0.4999999999999998,0.20129852008866006,0.9795299412524945,0.9749279121818236,-0.22252093395631434
-0.022574043339234212,-0.02188297547092834,NaN,-0.03146299075648035,-1.1643075479335045,0.16666666666666666,0.16805063063871808,0.8660254037844387,-0.4999999999999998,0.39435585511331855,0.9189578116202306,0.43388373911755823,-0.900968867902419
-0.009174373707384388,-0.02237202157739364,NaN,0.004555537836555965,0.5959834321062976,0.16666666666666666,0.16809551595673056,0.8660254037844387,-0.4999999999999998,0.5712682150947923,0.8207634412072763,-0.433883739117558,-0.9009688679024191
-0.00461922712425618,-0.004535431342530695,NaN,-0.013729911543940437,0.21905356606268467,0.16666666666666666,0.16827505722878047,0.8660254037844387,-0.4999999999999998,0.9884683243281114,0.1514277775045767,0.7818314824680298,0.6234898018587336
0.0,0.0,NaN,0.009174373707384467,0.752807016966281,0.16666666666666666,0.16831994254679294,0.8660254037844387,-0.4999999999999998,0.9987165071710528,-0.05064916883871264,0.9749279121818236,-0.22252093395631434
-0.00464009567209485,-0.004555537836555934,NaN,-0.013793600831640572,0.041593897298836925,0.16666666666666666,0.16836482786480544,0.8660254037844387,-0.4999999999999998,0.9680771188662043,-0.2506525322587204,0.43388373911755823,-0.900968867902419
0.0,-0.004576945726716619,NaN,0.0,0.23052365861183235,0.16666666666666666,0.16840971318281792,0.8660254037844387,-0.4999999999999998,0.8978045395707416,-0.4403941515576344,-0.433883739117558,-0.9009688679024191
0.00925932279635105,0.01818231908319033,NaN,0.027398974188114347,-0.37790716404450647,0.16666666666666666,0.1684545985008304,0.8660254037844387,-0.4999999999999998,0.7907757369376989,-0.6121059825476626,-0.9749279121818236,-0.2225209339563146
0.018265342886471178,0.008968669982760316,NaN,0.0,-1.2463458341747347,0.16666666666666666,0.16858925445486783,0.8660254037844387,-0.4999999999999998,0.29936312297335804,-0.9541392564000488,0.7818314824680298,0.6234898018587336
0.0,0.0,NaN,-0.004514404177387122,0.029413885206293407,0.16666666666666666,0.1686341397728803,0.8660254037844387,-0.4999999999999998,0.10116832198743272,-0.994869323391895,0.9749279121818236,-0.22252093395631434
0.004514404177387063,0.0,NaN,0.004514404177387063,1.0541605260972757,0.16666666666666666,0.16867902509089278,0.8660254037844387,-0.4999999999999998,-0.10116832198743204,-0.9948693233918952,0.43388373911755823,-0.900968867902419
0.0,0.0,NaN,0.0,-1.0687593255184287,0.16666666666666666,0.16872391040890525,0.8660254037844387,-0.4999999999999998,-0.29936312297335776,-0.9541392564000489,-0.433883739117558,-0.9009688679024191
0.0,0.0,NaN,0.00449466328805405,-0.12516314295400605,0.16666666666666666,0.16876879572691775,0.8660254037844387,-0.4999999999999998,-0.4853019625310808,-0.8743466161445822,-0.9749279121818236,-0.2225209339563146
0.0,-0.004474006694706323,NaN,-0.0044946632880541425,0.28768207245178085,0.16666666666666666,0.16890345168095516,0.8660254037844387,-0.4999999999999998,-0.8978045395707417,-0.44039415155763423,0.7818314824680298,0.6234898018587336
-0.004514404177387122,0.013362954111952359,NaN,0.01785761740000647,-0.25489224962879004,0.16666666666666666,0.16894833699896764,0.8660254037844387,-0.4999999999999998,-0.9680771188662041,-0.2506525322587213,0.9749279121818236,-0.22252093395631434
0.02237202157739364,0.017544309650909525,NaN,0.0,0.2166710368085923,0.16666666666666666,0.16899322231698014,0.8660254037844387,-0.4999999999999998,-0.9987165071710528,-0.05064916883871355,0.43388373911755823,-0.900968867902419
0.008810629682154906,0.008658062743114531,NaN,0.013187270810984858,0.21007146974685706,0.16666666666666666,0.1690381076349926,0.8660254037844387,-0.4999999999999998,-0.9884683243281114,0.15142777750457667,-0.433883739117558,-0.9009688679024191
-0.004395342595733952,0.0,NaN,0.008695704659943508,-0.8162072733171726,0.16666666666666666,0.16908299295300508,0.8660254037844387,-0.4999999999999998,-0.9377521321470804,0.3473052528448203,-0.9749279121818236,-0.2225209339563146
-0.004415287086420939,-0.004319396923095655,NaN,-0.013072345788773448,1.6828653809889176,0.16666666666666666,0.16921764890704252,0.8660254037844387,-0.4999999999999998,-0.5712682150947924,0.8207634412072763,0.7818314824680298,0.6234898018587336
0.013187270810984858,0.017167799124980124,NaN,0.01739174271186924,-0.7858060110426501,0.16666666666666666,0.169262534225055,0.8660254037844387,-0.4999999999999998,-0.3943558551133187,0.9189578116202306,0.9749279121818236,-0.22252093395631434
0.004357038839924541,0.004246031157415784,NaN,0.01284840220188439,-0.0808520966290949,0.16666666666666666,0.16930741954306747,0.8660254037844387,-0.4999999999999998,-0.20129852008866114,0.9795299412524943,0.43388373911755823,-0.900968867902419
0.012959406595931209,0.012632002283090795,NaN,0.012684899803280275,0.719122666963206,0.16666666666666666,0.16935230486107994,0.5000000000000003,-0.8660254037844385,0.20129852008866006,0.9795299412524945,-0.433883739117558,-0.9009688679024191
0.029600207822864776,0.04499711055354567,NaN,0.04518246791431241,0.42409392794165757,0.16666666666666666,0.16939719017909244,0.5000000000000003,-0.8660254037844385,0.39435585511331855,0.9189578116202306,-0.9749279121818236,-0.2225209339563146
0.016529301951210506,-0.012072334128403979,NaN,-0.0080645578519446,0.5528817557540786,0.16666666666666666,0.16953184613312985,0.5000000000000003,-0.8660254037844385,0.8486442574947509,0.5289640103269624,0.7818314824680298,0.6234898018587336
-0.012371038544669137,-0.012220358440640545,NaN,-0.024591396985309745,-1.3447004638210538,0.16666666666666666,0.16957673145114235,0.5000000000000003,-0.8660254037844385,0.9377521321470804,0.3473052528448203,0.9749279121818236,-0.22252093395631434
-0.008333379439831852,0.0,NaN,0.004140539408153656,-0.03007745523727795,0.16666666666666666,0.16962161676915483,0.5000000000000003,-0.8660254037844385,0.9884683243281114,0.1514277775045767,0.43388373911755823,-0.900968867902419
0.01659788720529866,0.004090234374580781,NaN,0.0041239683573129895,-0.28007747306656156,0.16666666666666666,0.1696665020871673,0.5000000000000003,-0.8660254037844385,0.9987165071710528,-0.05064916883871264,-0.433883739117558,-0.9009688679024191
-0.01659788720529855,-0.008196765153783243,NaN,-0.01659788720529855,-0.2006706954621511,0.16666666666666666,0.16971138740517977,0.5000000000000003,-0.8660254037844385,0.9680771188662043,-0.2506525322587204,-0.9749279121818236,-0.2225209339563146
0.0,-0.012422771172008141,NaN,0.0,0.38467433843909066,0.16666666666666666,0.1698460433592172,0.5000000000000003,-0.8660254037844385,0.6513724827222223,-0.758758122692791,0.7818314824680298,0.6234898018587336
-0.004193133637226137,0.0,NaN,0.00417511603329052,-0.9949338591932682,0.16666666666666666,0.16989092867722969,0.5000000000000003,-0.8660254037844385,0.48530196253108104,-0.8743466161445821,0.9749279121818236,-0.22252093395631434
0.0,0.0,NaN,0.0,0.6102595207541776,0.16666666666666666,0.16993581399524216,0.5000000000000003,-0.8660254037844385,0.29936312297335804,-0.9541392564000488,0.43388373911755823,-0.900968867902419
-0.025533302005164762,0.0,NaN,-0.00836824967051658,0.616186139423817,0.16666666666666666,0.16998069931325466,0.5000000000000003,-0.8660254037844385,0.10116832198743272,-0.994869323391895,-0.433883739117558,-0.9009688679024191
-0.026202372394024072,-0.01680711831638129,NaN,-0.051735674399188865,-0.6931471805599453,0.16666666666666666,0.17002558463126713,0.5000000000000003,-0.8660254037844385,-0.10116832198743204,-0.9948693233918952,-0.9749279121818236,-0.2225209339563146
0.0,-0.03010953494233934,NaN,0.013187270810984858,0.2151113796169455,0.16666666666666666,0.17016024058530455,0.5000000000000003,-0.8660254037844385,-0.6513724827222217,-0.7587581226927913,0.7818314824680298,0.6234898018587336
0.013187270810984858,0.02586350378492357,NaN,0.02586350378492357,0.06252035698133393,0.16666666666666666,0.17020512590331704,0.5000000000000003,-0.8660254037844385,-0.7907757369376986,-0.6121059825476627,0.9749279121818236,-0.22252093395631434
0.017316445435855775,0.016878033440506434,NaN,0.0,1.213022639845854,0.16666666666666666,0.17025001122132952,0.5000000000000003,-0.8660254037844385,-0.8978045395707417,-0.44039415155763423,0.43388373911755823,-0.900968867902419
-0.012959406595931143,-0.02114269195099939,NaN,-0.004264658510492944,0.06959329179919518,0.16666666666666666,0.170294896539342,0.5000000000000003,-0.8660254037844385,-0.9680771188662041,-0.2506525322587213,-0.433883739117558,-0.9009688679024191
0.0,0.0,NaN,0.0,-0.9360933591703348,0.16666666666666666,0.17033978185735446,0.5000000000000003,-0.8660254037844385,-0.9987165071710528,-0.05064916883871355,-0.9749279121818236,-0.2225209339563146
0.008658062743114531,0.021142691950999354,NaN,0.0,0.346624608085231,0.16666666666666666,0.17051932312940438,0.5000000000000003,-0.8660254037844385,-0.7247927872291207,0.6889669190756859,0.9749279121818236,-0.22252093395631434
0.01284840220188439,0.0,NaN,0.021142691950999354,0.5377330766859151,0.16666666666666666,0.17056420844741685,0.5000000000000003,-0.8660254037844385,-0.5712682150947924,0.8207634412072763,0.43388373911755823,-0.900968867902419
0.008474624799208581,0.00417511603329052,NaN,-0.008403408641298035,-1.0638261725826943,0.16666666666666666,0.17060909376542935,0.5000000000000003,-0.8660254037844385,-0.3943558551133187,0.9189578116202306,-0.433883739117558,-0.9009688679024191
-0.004228593641792784,0.008298802814695064,NaN,0.02087732748928349,0.19365312280350452,0.16666666666666666,0.17065397908344182,0.5000000000000003,-0.8660254037844385,-0.20129852008866114,0.9795299412524943,-0.9749279121818236,-0.2225209339563146
0.01680711831638119,0.008230499136515444,NaN,0.0,-0.16833531481921477,0.16666666666666666,0.17078863503747926,1.2246467991473532e-16,-1.0,0.39435585511331855,0.9189578116202306,0.7818314824680298,0.6234898018587336
0.016529301951210506,0.024292692569044483,NaN,0.016393809775676352,0.5108256237659907,0.16666666666666666,0.17083352035549174,1.2246467991473532e-16,-1.0,0.5712682150947923,0.8207634412072763,0.9749279121818236,-0.22252093395631434
0.008163310639160835,0.0,NaN,0.004057047801479549,-0.9545119446943529,0.16666666666666666,0.1708784056735042,1.2246467991473532e-16,-1.0,0.72479278722912,0.6889669190756866,0.43388373911755823,-0.900968867902419
0.008097210232619303,0.023716526617316065,NaN,0.0200405037775809,1.3329483804145978,0.16666666666666666,0.17092329099151668,1.2246467991473532e-16,-1.0,0.8486442574947509,0.5289640103269624,-0.433883739117558,-0.9009688679024191
0.0,-0.015748356968139168,NaN,-0.01600034134644119,-1.3592656887319712,0.16666666666666666,0.17096817630952915,1.2246467991473532e-16,-1.0,0.9377521321470804,0.3473052528448203,-0.9749279121818236,-0.2225209339563146
-0.004040162431139764,-0.007968169649176845,NaN,0.0,-0.36624439495488303,0.16666666666666666,0.1711028322635666,1.2246467991473532e-16,-1.0,0.9680771188662043,-0.2506525322587204,0.7818314824680298,0.6234898018587336
0.012072334128404026,0.019802866649705056,NaN,0.027835038346969324,0.892943367877164,0.16666666666666666,0.17114771758157907,1.2246467991473532e-16,-1.0,0.8978045395707416,-0.4403941515576344,0.9749279121818236,-0.22252093395631434
0.011928812110921639,0.0,NaN,0.0,-1.0599974525403302,0.16666666666666666,0.17119260289959157,1.2246467991473532e-16,-1.0,0.7907757369376989,-0.6121059825476626,0.43388373911755823,-0.900968867902419
-0.00793654767346051,-0.003929517493414883,NaN,-0.011834697000528128,0.5978370007556204,0.16666666666666666,0.17123748821760404,1.2246467991473532e-16,-1.0,0.6513724827222223,-0.758758122692791,-0.433883739117558,-0.9009688679024191
-0.003992264437461072,0.0,NaN,0.007905179507113247,0.3184537311185346,0.16666666666666666,0.1712823735356165,1.2246467991473532e-16,-1.0,0.48530196253108104,-0.8743466161445821,-0.9749279121818236,-0.2225209339563146
0.0,0.0,NaN,-0.00394453704536857,0.3557654395558918,0.16666666666666666,0.17141702948965395,1.2246467991473532e-16,-1.0,-0.10116832198743204,-0.9948693233918952,0.7818314824680298,0.6234898018587336
0.0,-0.00394453704536857,NaN,-0.011928812110921557,-0.48153482684492527,0.16666666666666666,0.17146191480766643,1.2246467991473532e-16,-1.0,-0.29936312297335776,-0.9541392564000489,0.9749279121818236,-0.22252093395631434
-0.0040077762764593764,-0.00793654767346051,NaN,0.003992264437461128,-0.05292240145434255,0.16666666666666666,0.1715068001256789,1.2246467991473532e-16,-1.0,-0.4853019625310808,-0.8743466161445822,0.43388373911755823,-0.900968867902419
-0.0040243954208048875,0.0,NaN,-0.012024436134725352,0.2403853577487159,0.16666666666666666,0.17155168544369137,1.2246467991473532e-16,-1.0,-0.6513724827222217,-0.7587581226927913,-0.433883739117558,-0.9009688679024191
0.0,0.0,NaN,0.008032171697264253,0.47426802803219315,0.16666666666666666,0.17159657076170387,1.2246467991473532e-16,-1.0,-0.7907757369376986,-0.6121059825476627,-0.9749279121818236,-0.2225209339563146
0.0,-0.003992264437461072,NaN,-0.008032171697264267,-0.8544153281560676,0.16666666666666666,0.1717312267157413,1.2246467991473532e-16,-1.0,-0.9987165071710528,-0.05064916883871355,0.7818314824680298,0.6234898018587336
0.0,0.0,NaN,0.0,1.263420262969356,0.16666666666666666,0.17177611203375376,1.2246467991473532e-16,-1.0,-0.9884683243281114,0.15142777750457667,0.9749279121818236,-0.22252093395631434
0.0,0.003992264437461128,NaN,0.012024436134725426,-1.1568105279110978,0.16666666666666666,0.17182099735176626,1.2246467991473532e-16,-1.0,-0.9377521321470804,0.3473052528448203,0.43388373911755823,-0.900968867902419
-0.004040162431139764,-0.003992264437461072,NaN,-0.012024436134725352,0.06524052186840094,0.16666666666666666,0.17186588266977873,1.2246467991473532e-16,-1.0,-0.8486442574947509,0.5289640103269624,-0.433883739117558,-0.9009688679024191
0.0,-0.008032171697264267,NaN,0.0,1.5795211513961078,0.16666666666666666,0.1719107679877912,1.2246467991473532e-16,-1.0,-0.7247927872291207,0.6889669190756859,-0.9749279121818236,-0.2225209339563146
-0.045556778708232354,0.0,NaN,-0.03278982282299084,-1.0214102546401054,0.16666666666666666,0.17204542394182865,1.2246467991473532e-16,-1.0,-0.20129852008866114,0.9795299412524943,0.7818314824680298,0.6234898018587336
0.0,-0.024491020008295755,NaN,0.008298802814695064,1.9010280012830867,0.16666666666666666,0.17209030925984112,-0.4999999999999997,-0.8660254037844388,0.20129852008866006,0.9795299412524945,0.9749279121818236,-0.22252093395631434
0.01680711831638119,0.0,NaN,-0.00414053940815373,-1.2894306876872492,0.16666666666666666,0.1721351945778536,-0.4999999999999997,-0.8660254037844388,0.39435585511331855,0.9189578116202306,0.43388373911755823,-0.900968867902419
0.008298802814695064,0.016393809775676352,NaN,0.008264507765466783,-1.2809338454620642,0.16666666666666666,0.17218007989586606,-0.4999999999999997,-0.8660254037844388,0.5712682150947923,0.8207634412072763,-0.433883739117558,-0.9009688679024191
0.012320733511096228,0.008097210232619303,NaN,0.012269841418363453,0.35313928910642467,0.16666666666666666,0.17235962116791598,-0.4999999999999997,-0.8660254037844388,0.9884683243281114,0.1514277775045767,0.7818314824680298,0.6234898018587336
0.01217028649719958,0.008032171697264253,NaN,0.016129381929883717,0.06402185876493102,0.16666666666666666,0.17240450648592848,-0.4999999999999997,-0.8660254037844388,0.9987165071710528,-0.05064916883871264,0.9749279121818236,-0.22252093395631434
0.0,0.019802866649705056,NaN,0.019802866649705056,0.44349250369740373,0.16666666666666666,0.17244939180394095,-0.4999999999999997,-0.8660254037844388,0.9680771188662043,-0.2506525322587204,0.43388373911755823,-0.900968867902419
0.01600034134644112,0.015564512844532436,NaN,0.00391365996761109,0.6679569317313868,0.16666666666666666,0.17249427712195342,-0.4999999999999997,-0.8660254037844388,0.8978045395707416,-0.4403941515576344,-0.433883739117558,-0.9009688679024191
0.007905179507113247,-0.003868712434866491,NaN,0.007782140442054949,-1.3761419896558726,0.16666666666666666,0.1725391624399659,-0.4999999999999997,-0.8660254037844388,0.7907757369376989,-0.6121059825476626,-0.9749279121818236,-0.2225209339563146
0.007843177461025879,0.01919467932895769,NaN,0.01919467932895769,0.18400364297693944,0.16666666666666666,0.17267381839400334,-0.4999999999999997,-0.8660254037844388,0.29936312297335804,-0.9541392564000488,0.7818314824680298,0.6234898018587336
0.02316705928153438,0.011342044531123988,NaN,0.007575792056964983,0.4248831939652659,0.16666666666666666,0.1727187037120158,-0.4999999999999997,-0.8660254037844388,0.10116832198743272,-0.994869323391895,0.9749279121818236,-0.22252093395631434
0.0,-0.0037662524741590812,NaN,0.0,1.0819914074320693,0.16666666666666666,0.17276358903002828,-0.4999999999999997,-0.8660254037844388,-0.10116832198743204,-0.9948693233918952,0.43388373911755823,-0.900968867902419
0.0076045993852192125,0.007518830688774128,NaN,0.003766252474159154,-0.5822156198526637,0.16666666666666666,0.17280847434804078,-0.4999999999999997,-0.8660254037844388,-0.29936312297335776,-0.9541392564000489,-0.433883739117558,-0.9009688679024191
0.0037809531612237536,0.02952243261625519,NaN,0.02597570997523666,0.3074846997479607,0.16666666666666666,0.17285335966605325,-0.4999999999999997,-0.8660254037844388,-0.4853019625310808,-0.8743466161445822,-0.9749279121818236,-0.2225209339563146
0.02974196244939556,0.003629546104580585,NaN,0.010928846960214397,-0.8873031950009028,0.16666666666666666,0.17298801562009067,-0.4999999999999997,-0.8660254037844388,-0.8978045395707417,-0.44039415155763423,0.7818314824680298,0.6234898018587336
0.007299300855633636,0.007220247973487097,NaN,-0.0036295461045806154,0.2651077504132419,0.16666666666666666,0.17303290093810317,-0.4999999999999997,-0.8660254037844388,-0.9680771188662041,-0.2506525322587213,0.9749279121818236,-0.22252093395631434
-0.010969253316572081,-0.00722024797348702,NaN,-0.010969253316572081,-0.22428575589298674,0.16666666666666666,0.17307778625611564,-0.4999999999999997,-0.8660254037844388,-0.9987165071710528,-0.05064916883871355,0.43388373911755823,-0.900968867902419
0.0,-0.007272759329079809,NaN,0.007326040092072881,0.17275210577780395,0.16666666666666666,0.1731226715741281,-0.4999999999999997,-0.8660254037844388,-0.9884683243281114,0.15142777750457667,-0.433883739117558,-0.9009688679024191
0.0,0.0,NaN,-0.003656087631134607,-1.006804739414987,0.16666666666666666,0.17316755689214058,-0.4999999999999997,-0.8660254037844388,-0.9377521321470804,0.3473052528448203,-0.9749279121818236,-0.2225209339563146
0.0,0.0,NaN,0.003656087631134498,1.0719440415859482,0.16666666666666666,0.17330221284617803,-0.4999999999999997,-0.8660254037844388,-0.5712682150947924,0.8207634412072763,0.7818314824680298,0.6234898018587336
0.003669952460938273,0.014493007302566824,NaN,0.014493007302566824,-0.6319927574066146,0.16666666666666666,0.1733470981641905,-0.4999999999999997,-0.8660254037844388,-0.3943558551133187,0.9189578116202306,0.9749279121818236,-0.22252093395631434
0.025317584412314024,0.01073377285004691,NaN,0.01073377285004691,2.1066114470317636,0.16666666666666666,0.17339198348220297,-0.4999999999999997,-0.8660254037844388,-0.20129852008866114,0.9795299412524943,0.43388373911755823,-0.900968867902419
0.0,0.0070922267744606285,NaN,0.0070922267744606285,-0.22960769793409908,0.16666666666666666,0.17343686880021547,-0.4999999999999997,-0.8660254037844388,-2.4492935982947064e-16,1.0,-0.433883739117558,-0.9009688679024191
0.014184634991956381,0.01054469750470798,NaN,0.007042281111925969,-1.3954149455166995,0.16666666666666666,0.17348175411822794,-0.8660254037844385,-0.5000000000000004,0.20129852008866006,0.9795299412524945,-0.9749279121818236,-0.2225209339563146
0.0,0.017331666094422986,NaN,0.020834082487204884,1.6574798535981803,0.16666666666666666,0.1736164100722654,-0.8660254037844385,-0.5000000000000004,0.72479278722912,0.6889669190756866,0.7818314824680298,0.6234898018587336
0.003515156265864636,-0.0034425539337557777,NaN,-0.010362996778329532,-0.3167087475023732,0.16666666666666666,0.17366129539027786,-0.8660254037844385,-0.5000000000000004,0.8486442574947509,0.5289640103269624,0.9749279121818236,-0.22252093395631434
0.006993033998577484,0.010291894347639392,NaN,0.017212337192213233,-1.5241403319222053,0.16666666666666666,0.17370618070829033,-0.8660254037844385,-0.5000000000000004,0.9377521321470804,0.3473052528448203,0.43388373911755823,-0.900968867902419
0.0034780517102977505,-0.006849340413883564,NaN,-0.013745918021436897,0.08438739227754741,0.16666666666666666,0.1737510660263028,-0.8660254037844385,-0.5000000000000004,0.9884683243281114,0.1514277775045767,-0.433883739117558,-0.9009688679024191
0.0034664191707761147,0.003430325354006343,NaN,0.006896577607553277,0.770964202916753,0.16666666666666666,0.17379595134431527,-0.8660254037844385,-0.5000000000000004,0.9987165071710528,-0.05064916883871264,-0.9749279121818236,-0.2225209339563146
-0.0034664191707762322,-0.01032690296155965,NaN,-0.006896577607553331,-0.8366594621821478,0.16666666666666666,0.17393060729835272,-0.8660254037844385,-0.5000000000000004,0.7907757369376989,-0.6121059825476626,0.7818314824680298,0.6234898018587336
0.0,0.02393255501733822,NaN,0.006896577607553277,1.479076094570857,0.16666666666666666,0.1739754926163652,-0.8660254037844385,-0.5000000000000004,0.6513724827222223,-0.758758122692791,0.9749279121818236,-0.22252093395631434
0.0034664191707761147,-0.006779686985378804,NaN,-0.0034425539337557777,-2.089335615325034,0.16666666666666666,0.1740203779343777,-0.8660254037844385,-0.5000000000000004,0.48530196253108104,-0.8743466161445821,0.43388373911755823,-0.900968867902419
-0.0034664191707762322,-0.013698844358161915,NaN,0.0,-0.107888962011185,0.16666666666666666,0.17406526325239016,-0.8660254037844385,-0.5000000000000004,0.29936312297335804,-0.9541392564000488,-0.433883739117558,-0.9009688679024191
0.0034664191707761147,0.010291894347639392,NaN,-0.0034540236737975825,0.4345731922662351,0.16666666666666666,0.17411014857040263,-0.8660254037844385,-0.5000000000000004,0.10116832198743272,-0.994869323391895,-0.9749279121818236,-0.2225209339563146
-0.024519828368608554,-0.017212337192213125,NaN,-0.024519828368608554,0.4270875721213301,0.16666666666666666,0.17424480452444008,-0.8660254037844385,-0.5000000000000004,-0.4853019625310808,-0.8743466161445822,0.7818314824680298,0.6234898018587336
-0.014285957247476541,-0.02105340919783238,NaN,-0.010695070352771034,0.7324707267638596,0.16666666666666666,0.17428968984245255,-0.8660254037844385,-0.5000000000000004,-0.6513724827222217,-0.7587581226927913,0.9749279121818236,-0.22252093395631434
-0.010849794078067706,-0.003552184397429699,NaN,0.007142885955341313,-0.8759830083860622,0.16666666666666666,0.17433457516046502,-0.8660254037844385,-0.5000000000000004,-0.7907757369376986,-0.6121059825476627,0.43388373911755823,-0.900968867902419
0.04618916052337647,0.038398915727597877,NaN,0.03152603643983587,1.0565892988932617,0.16666666666666666,0.1743794604784775,-0.8660254037844385,-0.5000000000000004,-0.8978045395707417,-0.44039415155763423,-0.433883739117558,-0.9009688679024191
0.0034664191707761147,0.0,NaN,0.0,-1.3401645893923892,0.16666666666666666,0.17442434579648997,-0.8660254037844385,-0.5000000000000004,-0.9680771188662041,-0.2506525322587213,-0.9749279121818236,-0.2225209339563146
-0.0034664191707762322,-0.006872879287762064,NaN,-0.006920442844573795,-0.7609697768987064,0.16666666666666666,0.1745590017505274,-0.8660254037844385,-0.5000000000000004,-0.9377521321470804,0.3473052528448203,0.7818314824680298,0.6234898018587336
0.0,0.0068728792877620504,NaN,0.006920442844573757,1.0258529343856813,0.16666666666666666,0.17460388706853988,-0.8660254037844385,-0.5000000000000004,-0.8486442574947509,0.5289640103269624,0.9749279121818236,-0.22252093395631434
-0.01398624197473984,-0.01032690296155965,NaN,-0.020906684819313712,0.2782033284972371,0.16666666666666666,0.17464877238655238,-0.8660254037844385,-0.5000000000000004,-0.7247927872291207,0.6889669190756859,0.43388373911755823,-0.900968867902419
-0.021353124470568946,-0.024519828368608554,NaN,-0.021353124470568946,-0.456758402495715,0.16666666666666666,0.17469365770456485,-0.8660254037844385,-0.5000000000000004,-0.5712682150947924,0.8207634412072763,-0.433883739117558,-0.9009688679024191
-0.00722024797348702,-0.0071174677688639896,NaN,0.0,1.2473779258644804,0.16666666666666666,0.17473854302257733,-0.8660254037844385,-0.5000000000000004,-0.3943558551133187,0.9189578116202306,-0.9749279121818236,-0.2225209339563146
0.007220247973487097,0.0035652833714344065,NaN,0.007168489478612497,-1.5630160755828513,0.16666666666666666,0.17491808429462724,-1.0,-1.8369701987210297e-16,0.39435585511331855,0.9189578116202306,0.9749279121818236,-0.22252093395631434
0.0,0.03152603643983587,NaN,0.028170876966696224,1.9414820975395812,0.16666666666666666,0.1749629696126397,-1.0,-1.8369701987210297e-16,0.5712682150947923,0.8207634412072763,0.43388373911755823,-0.900968867902419
0.028370697129215566,0.003442553933755789,NaN,0.0,-0.9555114450274363,0.16666666666666666,0.17500785493065218,-1.0,-1.8369701987210297e-16,0.72479278722912,0.6889669190756866,-0.433883739117558,-0.9009688679024191
0.0,-0.006896577607553331,NaN,0.0034664191707761147,0.564001759878677,0.16666666666666666,0.17505274024866468,-1.0,-1.8369701987210297e-16,0.8486442574947509,0.5289640103269624,-0.9749279121818236,-0.2225209339563146
0.003490617605795663,0.003454023673797579,NaN,-0.006944470881074026,-1.981548664502672,0.16666666666666666,0.1751873962027021,-1.0,-1.8369701987210297e-16,0.9987165071710528,-0.05064916883871264,0.7818314824680298,0.6234898018587336
-0.003490617605795511,-0.010398494554871593,NaN,0.0,-0.10008345855698253,0.16666666666666666,0.17523228152071457,-1.0,-1.8369701987210297e-16,0.9680771188662043,-0.2506525322587204,0.9749279121818236,-0.22252093395631434
0.0,0.0,NaN,-0.003490617605795511,-0.09180754925312286,0.16666666666666666,0.17527716683872707,-1.0,-1.8369701987210297e-16,0.8978045395707416,-0.4403941515576344,0.43388373911755823,-0.900968867902419
0.0,0.0034780517102977505,NaN,0.0069686693160934355,-0.31365755885504165,0.16666666666666666,0.17532205215673954,-1.0,-1.8369701987210297e-16,0.7907757369376989,-0.6121059825476626,-0.433883739117558,-0.9009688679024191
0.003490617605795663,0.006920442844573757,NaN,0.006920442844573757,0.7444404749474958,0.16666666666666666,0.17536693747475202,-1.0,-1.8369701987210297e-16,0.6513724827222223,-0.758758122692791,-0.9749279121818236,-0.2225209339563146
0.0034780517102977505,0.003442553933755789,NaN,-0.006920442844573795,0.6151856390902335,0.16666666666666666,0.17550159342878946,-1.0,-1.8369701987210297e-16,0.10116832198743272,-0.994869323391895,0.7818314824680298,0.6234898018587336
0.0,-0.0034425539337557777,NaN,0.006920442844573757,-0.9028677115420143,0.16666666666666666,0.17554647874680193,-1.0,-1.8369701987210297e-16,-0.10116832198743204,-0.9948693233918952,0.9749279121818236,-0.22252093395631434
0.0,0.03056285454110329,NaN,0.027212563524884794,2.8574276021768106,0.16666666666666666,0.1755913640648144,-1.0,-1.8369701987210297e-16,-0.29936312297335776,-0.9541392564000489,0.43388373911755823,-0.900968867902419
0.03748329738567702,0.01328922942388507,NaN,0.00668898815079671,-2.1154902574474335,0.16666666666666666,0.17563624938282688,-1.0,-1.8369701987210297e-16,-0.4853019625310808,-0.8743466161445822,-0.433883739117558,-0.9009688679024191
0.0,-0.006622539422047447,NaN,0.0,-0.4795730802618862,0.16666666666666666,0.17568113470083938,-1.0,-1.8369701987210297e-16,-0.6513724827222217,-0.7587581226927913,-0.9749279121818236,-0.2225209339563146
0.003338697134578053,0.003316549851409095,NaN,0.0033279928672594887,0.7492366472109889,0.16666666666666666,0.1758157906548768,-1.0,-1.8369701987210297e-16,-0.9680771188662041,-0.2506525322587213,0.7818314824680298,0.6234898018587336
-0.003338697134578145,0.006600684031352093,NaN,0.0,0.614366302706831,0.16666666666666666,0.1758606759728893,-1.0,-1.8369701987210297e-16,-0.9987165071710528,-0.05064916883871355,0.9749279121818236,-0.22252093395631434
-0.0033502910162185187,-0.016583923884598718,NaN,-0.010016981018056184,-1.1877122834541558,0.16666666666666666,0.17590556129090176,-1.0,-1.8369701987210297e-16,-0.9884683243281114,0.15142777750457667,0.43388373911755823,-0.900968867902419
-0.01351371916672282,-0.0033502910162185187,NaN,-0.010117923266771259,0.5793882952032873,0.16666666666666666,0.17595044660891423,-1.0,-1.8369701987210297e-16,-0.9377521321470804,0.3473052528448203,-0.433883739117558,-0.9009688679024191
-0.010256290424406157,-0.010117923266771259,NaN,-0.006802745910474024,0.28163975799581836,0.16666666666666666,0.1759953319269267,-1.0,-1.8369701987210297e-16,-0.8486442574947509,0.5289640103269624,-0.9749279121818236,-0.2225209339563146
-0.0034425539337557777,-0.010221760970351445,NaN,-0.003419015059877358,0.1973594341584952,0.16666666666666666,0.17612998788096415,-1.0,-1.8369701987210297e-16,-0.3943558551133187,0.9189578116202306,0.7818314824680298,0.6234898018587336
0.0,0.0034190150598772426,NaN,0.0034190150598772426,-1.2342781538212648,0.16666666666666666,0.17617487319897662,-1.0,-1.8369701987210297e-16,-0.20129852008866114,0.9795299412524943,0.9749279121818236,-0.22252093395631434
-0.0034540236737975825,-0.003419015059877358,NaN,-0.013745918021436897,-0.21357410029805904,0.16666666666666666,0.1762197585169891,-0.866025403784439,0.49999999999999933,0.20129852008866006,0.9795299412524945,0.43388373911755823,-0.900968867902419
-0.0034664191707762322,-0.0034303253540062645,NaN,0.006896577607553277,1.7594986070098335,0.16666666666666666,0.1762646438350016,-0.866025403784439,0.49999999999999933,0.39435585511331855,0.9189578116202306,-0.433883739117558,-0.9009688679024191
0.006920442844573757,0.006849340413883674,NaN,0.003430325354006343,-1.1752455146890257,0.16666666666666666,0.17630952915301407,-0.866025403784439,0.49999999999999933,0.5712682150947923,0.8207634412072763,-0.9749279121818236,-0.2225209339563146
0.0,0.00340695001052248,NaN,-0.006872879287762064,-0.3966544784260094,0.16666666666666666,0.17644418510705148,-0.866025403784439,0.49999999999999933,0.9377521321470804,0.3473052528448203,0.7818314824680298,0.6234898018587336
-0.006920442844573795,-0.013698844358161915,NaN,-0.006920442844573795,1.32874887547329,0.16666666666666666,0.17648907042506398,-0.866025403784439,0.49999999999999933,0.9884683243281114,0.1514277775045767,0.9749279121818236,-0.22252093395631434
-0.0034780517102977458,0.0068728792877620504,NaN,0.01379332213233577,0.5768873744440833,0.16666666666666666,0.17653395574307645,-0.866025403784439,0.49999999999999933,0.9987165071710528,-0.05064916883871264,0.43388373911755823,-0.900968867902419
0.0034780517102977505,0.0,NaN,-0.006872879287762064,-0.6123520840163659,0.16666666666666666,0.17657884106108893,-0.866025403784439,0.49999999999999933,0.9680771188662043,-0.2506525322587204,-0.433883739117558,-0.9009688679024191
-0.02105340919783238,-0.020761991448429128,NaN,-0.017391528553449175,0.5865825708373145,0.16666666666666666,0.1766237263791014,-0.866025403784439,0.49999999999999933,0.8978045395707416,-0.4403941515576344,-0.9749279121818236,-0.2225209339563146
0.0035400423770309713,-0.0035024163927820035,NaN,0.0,-2.099726212851342,0.16666666666666666,0.17675838233313884,-0.866025403784439,0.49999999999999933,0.48530196253108104,-0.8743466161445821,0.7818314824680298,0.6234898018587336
-0.0035400423770309657,0.010471085708875436,NaN,-0.010582323488956977,0.830768558435993,0.16666666666666666,0.1768032676511513,-0.866025403784439,0.49999999999999933,0.29936312297335804,-0.9541392564000488,0.9749279121818236,-0.22252093395631434
-0.0071174677688639896,-0.02105340919783238,NaN,-0.003552184397429699,-0.678962545567989,0.16666666666666666,0.17684815296916379,-0.866025403784439,0.49999999999999933,0.10116832198743272,-0.994869323391895,0.43388373911755823,-0.900968867902419
-0.007168489478612516,0.0,NaN,-0.0035652833714342963,1.3208164317403837,0.16666666666666666,0.17689303828717629,-0.866025403784439,0.49999999999999933,-0.10116832198743204,-0.9948693233918952,-0.433883739117558,-0.9009688679024191
-0.00722024797348702,-0.0071174677688639896,NaN,0.0,-0.34705434595174994,0.16666666666666666,0.17693792360518876,-0.866025403784439,0.49999999999999933,-0.29936312297335776,-0.9541392564000489,-0.9749279121818236,-0.2225209339563146
0.003616860813688508,0.0,NaN,0.0,-0.6931471805599453,0.16666666666666666,0.1770725795592262,-0.866025403784439,0.49999999999999933,-0.7907757369376986,-0.6121059825476627,0.7818314824680298,0.6234898018587336
0.010771876638410983,0.028170876966696224,NaN,0.028170876966696224,1.3260021308637706,0.16666666666666666,0.17711746487723867,-0.866025403784439,0.49999999999999933,-0.8978045395707417,-0.44039415155763423,0.9749279121818236,-0.22252093395631434
0.010657510145895041,0.010362996778329667,NaN,-0.006968669316093316,-1.1871656860095547,0.16666666666666666,0.17716235019525114,-0.866025403784439,0.49999999999999933,-0.9680771188662041,-0.2506525322587213,0.43388373911755823,-0.900968867902419
0.01054469750470798,-0.0034425539337557777,NaN,0.0069686693160934355,0.664976303593249,0.16666666666666666,0.17720723551326362,-0.866025403784439,0.49999999999999933,-0.9987165071710528,-0.05064916883871355,-0.433883739117558,-0.9009688679024191
0.0,0.0,NaN,0.006920442844573757,-0.6931471805599453,0.16666666666666666,0.1772521208312761,-0.866025403784439,0.49999999999999933,-0.9884683243281114,0.15142777750457667,-0.9749279121818236,-0.2225209339563146
0.0,-0.006920442844573795,NaN,-0.006920442844573795,1.1329370312091842,0.16666666666666666,0.17738677678531353,-0.866025403784439,0.49999999999999933,-0.7247927872291207,0.6889669190756859,0.7818314824680298,0.6234898018587336
0.0,0.006920442844573757,NaN,0.0034664191707761147,-0.32731186722254874,0.16666666666666666,0.177431662103326,-0.866025403784439,0.49999999999999933,-0.5712682150947924,0.8207634412072763,0.9749279121818236,-0.22252093395631434
0.0069686693160934355,0.0,NaN,0.003454023673797579,-0.40333970879585096,0.16666666666666666,0.1774765474213385,-0.866025403784439,0.49999999999999933,-0.3943558551133187,0.9189578116202306,0.43388373911755823,-0.900968867902419
0.0034664191707761147,0.003442553933755789,NaN,0.0,-0.47127832667773617,0.16666666666666666,0.17752143273935098,-0.866025403784439,0.49999999999999933,-0.20129852008866114,0.9795299412524943,-0.433883739117558,-0.9009688679024191
-0.0034664191707762322,-0.0034425539337557777,NaN,0.0,0.4389130421757044,0.16666666666666666,0.17756631805736345,-0.866025403784439,0.49999999999999933,-2.4492935982947064e-16,1.0,-0.9749279121818236,-0.2225209339563146
-0.010471085708875403,0.0068728792877620504,NaN,0.0068728792877620504,1.4744016286301573,0.16666666666666666,0.1777009740114009,-0.5000000000000012,0.8660254037844379,0.5712682150947923,0.8207634412072763,0.7818314824680298,0.6234898018587336
0.020834082487204884,0.03367321510658781,NaN,0.0,0.0,0.16666666666666666,0.17779074464742584,-0.5000000000000012,0.8660254037844379,0.8486442574947509,0.5289640103269624,0.43388373911755823,-0.900968867902419
0.003430325354006343,-0.020067563050809256,NaN,0.006825965070399891,-0.6931471805599453,0.16666666666666666,0.1778356299654383,-0.5000000000000012,0.8660254037844379,0.9377521321470804,0.3473052528448203,-0.433883739117558,-0.9009688679024191
0.0,-0.006779686985378804,NaN,-0.006825965070399871,0.08650924290928252,0.16666666666666666,0.1778805152834508,-0.5000000000000012,0.8660254037844379,0.9884683243281114,0.1514277775045767,-0.9749279121818236,-0.2225209339563146
-0.01032690296155965,-0.006825965070399871,NaN,-0.0034303253540062645,-1.1642563931134307,0.16666666666666666,0.17801517123748822,-0.5000000000000012,0.8660254037844379,0.8978045395707416,-0.4403941515576344,0.7818314824680298,0.6234898018587336
0.003454023673797579,0.0,NaN,-0.0034425539337557777,1.5678781827273056,0.16666666666666666,0.1780600565555007,-0.5000000000000012,0.8660254037844379,0.7907757369376989,-0.6121059825476626,0.9749279121818236,-0.22252093395631434
-0.006920442844573795,0.0,NaN,0.003442553933755789,-1.1247820064014944,0.16666666666666666,0.1781049418735132,-0.5000000000000012,0.8660254037844379,0.6513724827222223,-0.758758122692791,0.43388373911755823,-0.900968867902419
0.0034664191707761147,0.0,NaN,0.0,1.9507684582063896,0.16666666666666666,0.17814982719152567,-0.5000000000000012,0.8660254037844379,0.48530196253108104,-0.8743466161445821,-0.433883739117558,-0.9009688679024191
0.006896577607553277,0.010221760970351348,NaN,0.013652086324357614,-1.03675304016937,0.16666666666666666,0.17819471250953814,-0.5000000000000012,0.8660254037844379,0.29936312297335804,-0.9541392564000488,-0.9749279121818236,-0.2225209339563146
0.006849340413883674,0.016806911417567988,NaN,0.010117923266771321,0.5153710861376654,0.16666666666666666,0.17832936846357558,-0.5000000000000012,0.8660254037844379,-0.29936312297335776,-0.9541392564000489,0.7818314824680298,0.6234898018587336
0.01692066917724527,0.0033279928672594887,NaN,0.0033502910162183943,-1.965141510983201,0.16666666666666666,0.17837425378158805,-0.5000000000000012,0.8660254037844379,-0.4853019625310808,-0.8743466161445822,0.9749279121818236,-0.22252093395631434
-0.0033611421971493343,0.006622539422047434,NaN,0.009983239853246595,0.3825508485852886,0.16666666666666666,0.17841913909960053,-0.5000000000000012,0.8660254037844379,-0.6513724827222217,-0.7587581226927913,0.43388373911755823,-0.900968867902419
0.01005013034794598,0.022839290533683783,NaN,0.016420929023891636,0.4465519682106857,0.16666666666666666,0.178464024417613,-0.5000000000000012,0.8660254037844379,-0.7907757369376986,-0.6121059825476627,-0.433883739117558,-0.9009688679024191
-0.013423020332140661,-0.00972435108043066,NaN,-0.01642092902389166,-0.5886344818244585,0.16666666666666666,0.1785089097356255,-0.5000000000000012,0.8660254037844379,-0.8978045395707417,-0.44039415155763423,-0.9749279121818236,-0.2225209339563146
-0.006779686985378804,-0.006535969676103312,NaN,-0.006644542718668613,0.14868319764512478,0.16666666666666666,0.17864356568966291,-0.5000000000000012,0.8660254037844379,-0.9884683243281114,0.15142777750457667,0.7818314824680298,0.6234898018587336
0.0,-0.013201509199197293,NaN,-0.013423020332140661,-0.3053816495511819,0.16666666666666666,0.17868845100767541,-0.5000000000000012,0.8660254037844379,-0.9377521321470804,0.3473052528448203,0.9749279121818236,-0.22252093395631434
-0.04522488079799766,-0.03722954454294088,NaN,-0.04845238338594674,0.7453329337305156,0.16666666666666666,0.17873333632568789,-0.5000000000000012,0.8660254037844379,-0.8486442574947509,0.5289640103269624,0.43388373911755823,-0.900968867902419
-0.010733772850046806,-0.02797385204240618,NaN,-0.0071174677688639896,-0.15556410762440526,0.16666666666666666,0.17882310696171283,-0.5000000000000012,0.8660254037844379,-0.5712682150947924,0.8207634412072763,-0.9749279121818236,-0.2225209339563146
0.0035908868947056314,0.0,NaN,0.0,-0.754390805800664,0.16666666666666666,0.17895776291575027,-2.4492935982947064e-16,1.0,0.20129852008866006,0.9795299412524945,0.7818314824680298,0.6234898018587336
-0.0035908868947055494,0.0,NaN,0.007117467768863955,0.4765610297918946,0.16666666666666666,0.17900264823376275,-2.4492935982947064e-16,1.0,0.39435585511331855,0.9189578116202306,0.9749279121818236,-0.22252093395631434
0.007168489478612497,0.021053409197832263,NaN,0.021053409197832263,-0.29423947299793995,0.16666666666666666,0.17904753355177522,-2.4492935982947064e-16,1.0,0.5712682150947923,0.8207634412072763,0.43388373911755823,-0.900968867902419
0.014184634991956381,0.006920442844573757,NaN,0.0,1.2602536402245255,0.16666666666666666,0.17909241886978772,-2.4492935982947064e-16,1.0,0.72479278722912,0.6889669190756866,-0.433883739117558,-0.9009688679024191
0.00701757265864654,-0.006920442844573795,NaN,-0.0034780517102977458,-1.0060195018402847,0.16666666666666666,0.1791373041878002,-2.4492935982947064e-16,1.0,0.8486442574947509,0.5289640103269624,-0.9749279121818236,-0.2225209339563146
-0.021202207650602937,-0.01398624197473984,NaN,-0.01757535748753458,0.4943643467119187,0.16666666666666666,0.1792719601418376,-2.4492935982947064e-16,1.0,0.9987165071710528,-0.05064916883871264,0.7818314824680298,0.6234898018587336
0.0,-0.007067167223092443,NaN,-0.0071174677688639896,0.31429572096987096,0.16666666666666666,0.1793168454598501,-2.4492935982947064e-16,1.0,0.9680771188662043,-0.2506525322587204,0.9749279121818236,-0.22252093395631434
0.0,0.014084739881739023,NaN,0.0035652833714344065,-0.9392802500988537,0.16666666666666666,0.17936173077786258,-2.4492935982947064e-16,1.0,0.8978045395707416,-0.4403941515576344,0.43388373911755823,-0.900968867902419
-0.014388737452099556,-0.014084739881738972,NaN,-0.01795402082353395,0.7926767759069784,0.16666666666666666,0.17940661609587505,-2.4492935982947064e-16,1.0,0.7907757369376989,-0.6121059825476626,-0.433883739117558,-0.9009688679024191
-0.0036295461045806154,-0.014285957247476541,NaN,0.0,-2.0689702418125404,0.16666666666666666,0.17945150141388752,-2.4492935982947064e-16,1.0,0.6513724827222223,-0.758758122692791,-0.9749279121818236,-0.2225209339563146
-0.014652273510915054,-0.010849794078067706,NaN,-0.01828181961549564,2.10345641788371,0.16666666666666666,0.17958615736792496,-2.4492935982947064e-16,1.0,0.10116832198743272,-0.994869323391895,0.7818314824680298,0.6234898018587336
-0.033774542340557455,-0.022059713114264363,NaN,-0.026169942955338206,-1.2802561090755666,0.16666666666666666,0.17963104268593744,-2.4492935982947064e-16,1.0,-0.10116832198743204,-0.9948693233918952,0.9749279121818236,-0.22252093395631434
0.011385552546443117,0.0,NaN,0.011299783849998168,0.7465723472335258,0.16666666666666666,0.1796759280039499,-2.4492935982947064e-16,1.0,-0.29936312297335776,-0.9541392564000489,0.43388373911755823,-0.900968867902419
-0.0037809531612239045,-0.011215297716605939,NaN,-0.007518830688774151,-0.4993312443402556,0.16666666666666666,0.1797208133219624,-2.4492935982947064e-16,1.0,-0.4853019625310808,-0.8743466161445822,-0.433883739117558,-0.9009688679024191
0.0,0.02963179760637115,NaN,0.03339805008053023,1.0986122886681098,0.16666666666666666,0.17976569863997488,-2.4492935982947064e-16,1.0,-0.6513724827222217,-0.7587581226927913,-0.9749279121818236,-0.2225209339563146
0.02985296314968113,0.010889620142768423,NaN,0.010889620142768423,-0.2719337154836418,0.16666666666666666,0.17990035459401232,-2.4492935982947064e-16,1.0,-0.9680771188662041,-0.2506525322587213,0.7818314824680298,0.6234898018587336
0.007326040092072881,0.010771876638410983,NaN,-0.0036168608136886303,-0.7357067949787413,0.16666666666666666,0.1799452399120248,-2.4492935982947064e-16,1.0,-0.9987165071710528,-0.05064916883871355,0.9749279121818236,-0.22252093395631434
-0.003656087631134607,0.024692825256398557,NaN,0.03908156270849822,1.8778041955865898,0.16666666666666666,0.17999012523003727,-2.4492935982947064e-16,1.0,-0.9884683243281114,0.15142777750457667,0.43388373911755823,-0.900968867902419
0.043017375670134986,0.010398494554871563,NaN,0.0034780517102977505,-2.5118624597765287,0.16666666666666666,0.1800798958660622,-2.4492935982947064e-16,1.0,-0.8486442574947509,0.5289640103269624,-0.9749279121818236,-0.2225209339563146
0.003502416392781961,0.017094640258113483,NaN,0.006920442844573757,1.202332114868476,0.16666666666666666,0.18021455182009966,-2.4492935982947064e-16,1.0,-0.3943558551133187,0.9189578116202306,0.7818314824680298,0.6234898018587336
0.0,0.010117923266771321,NaN,0.027212563524884794,1.3396570503115597,0.16666666666666666,0.18025943713811213,-2.4492935982947064e-16,1.0,-0.20129852008866114,0.9795299412524943,0.9749279121818236,-0.22252093395631434
0.037740533488402436,0.08980389486130327,NaN,0.08980389486130327,-0.28983492581288195,0.16666666666666666,0.18030432245612463,-2.4492935982947064e-16,1.0,-2.4492935982947064e-16,1.0,0.43388373911755823,-0.900968867902419
0.07458865148551722,0.0,NaN,0.0,-0.6526010861655953,0.18333333333333332,0.18039409309214957,0.49999999999999994,0.8660254037844387,0.39435585511331855,0.9189578116202306,-0.9749279121818236,-0.2225209339563146
0.0,0.021245291902476853,NaN,-0.012345835822299379,0.9527056786159335,0.18333333333333332,0.18052874904618701,0.49999999999999994,0.8660254037844387,0.8486442574947509,0.5289640103269624,0.7818314824680298,0.6234898018587336
-0.03822121282019774,-0.03982167747541232,NaN,-0.03797924806521633,-1.4427768709124782,0.18333333333333332,0.1805736343641995,0.49999999999999994,0.8660254037844387,0.9377521321470804,0.3473052528448203,0.9749279121818236,-0.22252093395631434
-0.06713930283762856,-0.05129329438755058,NaN,-0.026145280104322245,0.6026900704046939,0.18333333333333332,0.18061851968221196,0.49999999999999994,0.8660254037844387,0.9884683243281114,0.1514277775045767,0.43388373911755823,-0.900968867902419
-0.01398624197473984,-0.003294694460713644,NaN,-0.026847250036188052,0.22904327344139813,0.18333333333333332,0.18066340500022443,0.49999999999999994,0.8660254037844387,0.9987165071710528,-0.05064916883871264,-0.433883739117558,-0.9009688679024191
0.03119857916695311,0.013114939453253179,NaN,0.04326817906007956,0.653549925935586,0.18333333333333332,0.1807082903182369,0.49999999999999994,0.8660254037844387,0.9680771188662043,-0.2506525322587204,-0.9749279121818236,-0.2225209339563146
0.06283037048132332,0.06311241115032863,NaN,0.053895569393568175,-0.1646090956700996,0.18333333333333332,0.18084294627227435,0.49999999999999994,0.8660254037844387,0.6513724827222223,-0.758758122692791,0.7818314824680298,0.6234898018587336
0.025317807984289786,-0.009216841756760607,NaN,-0.006191970247921107,-1.3877384046921244,0.18333333333333332,0.18088783159028682,0.49999999999999994,0.8660254037844387,0.48530196253108104,-0.8743466161445821,0.9749279121818236,-0.22252093395631434
0.0,0.018349138668196617,NaN,0.0031009666415623533,1.3097378624228913,0.18333333333333332,0.18093271690829932,0.49999999999999994,0.8660254037844387,0.29936312297335804,-0.9541392564000488,0.43388373911755823,-0.900968867902419
0.0,-0.01834913866819654,NaN,-0.0031009666415624587,-1.1951712978573419,0.18333333333333332,0.1809776022263118,0.49999999999999994,0.8660254037844387,0.10116832198743272,-0.994869323391895,-0.433883739117558,-0.9009688679024191
0.003120317476899233,0.04230237969068937,NaN,0.04849434993861056,0.9724176861074414,0.18333333333333332,0.18102248754432426,0.49999999999999994,0.8660254037844387,-0.10116832198743204,-0.9948693233918952,-0.9749279121818236,-0.2225209339563146
0.027651341189854496,0.005899722127188322,NaN,-0.005934735519814578,-0.06648974126883297,0.18333333333333332,0.1811571434983617,0.49999999999999994,0.8660254037844387,-0.6513724827222217,-0.7587581226927913,0.7818314824680298,0.6234898018587336
0.0239532410224928,0.005865119452398058,NaN,0.014771496309024542,0.06843716155322847,0.18333333333333332,0.18120202881637418,0.49999999999999994,0.8660254037844387,-0.7907757369376986,-0.6121059825476627,0.9749279121818236,-0.22252093395631434
-0.005934735519814578,0.011628037995119214,NaN,0.008759001101169672,1.134284860871055,0.18333333333333332,0.18124691413438665,0.49999999999999994,0.8660254037844387,-0.8978045395707417,-0.44039415155763423,0.43388373911755823,-0.900968867902419
-0.005970166986503796,0.022858138076050184,NaN,-0.0175957618903796,-0.46775334701099935,0.18333333333333332,0.18129179945239912,0.49999999999999994,0.8660254037844387,-0.9680771188662041,-0.2506525322587213,-0.433883739117558,-0.9009688679024191
-0.01204833851617448,-0.0462510176507557,NaN,-0.005934735519814578,0.14914315809663595,0.18333333333333332,0.18133668477041162,0.49999999999999994,0.8660254037844387,-0.9987165071710528,-0.05064916883871355,-0.9749279121818236,-0.2225209339563146
-0.006079046076382226,-0.014903222213834298,NaN,-0.02409755157906053,-1.7300217686222754,0.18333333333333332,0.18147134072444904,0.49999999999999994,0.8660254037844387,-0.8486442574947509,0.5289640103269624,0.7818314824680298,0.6234898018587336
0.0,-0.003007704352695978,NaN,0.009104951389144685,0.8269819252268367,0.18333333333333332,0.1815162260424615,0.49999999999999994,0.8660254037844387,-0.7247927872291207,0.6889669190756859,0.9749279121818236,-0.22252093395631434
0.0060790460763821925,0.020865318508654286,NaN,0.014992600189915798,-0.7432120421613779,0.18333333333333332,0.181561111360474,0.49999999999999994,0.8660254037844387,-0.5712682150947924,0.8207634412072763,0.43388373911755823,-0.900968867902419
0.018018505502678212,0.014641369948255656,NaN,0.011834457647002798,-0.3117796240308415,0.18333333333333332,0.18160599667848648,0.49999999999999994,0.8660254037844387,-0.3943558551133187,0.9189578116202306,-0.433883739117558,-0.9009688679024191
0.0059347355198145265,0.002902936571442143,NaN,0.002937038662021652,0.31177962403084153,0.18333333333333332,0.18165088199649895,0.49999999999999994,0.8660254037844387,-0.20129852008866114,0.9795299412524943,-0.9749279121818236,-0.2225209339563146
-0.023953241022492872,-0.017544306519697694,NaN,-0.02674768735574022,-0.6494721170572837,0.18333333333333332,0.1817855379505364,0.8660254037844386,0.5000000000000001,0.39435585511331855,0.9189578116202306,0.7818314824680298,0.6234898018587336
0.0,-0.002954391942123976,NaN,0.01197619104671562,0.5159407244327612,0.18333333333333332,0.18183042326854887,0.8660254037844386,0.5000000000000001,0.5712682150947923,0.8207634412072763,0.9749279121818236,-0.22252093395631434
-0.0030347181779789784,0.005899722127188322,NaN,-0.018018505502678365,0.6514744841593773,0.18333333333333332,0.18187530858656134,0.8660254037844386,0.5000000000000001,0.72479278722912,0.6889669190756866,0.43388373911755823,-0.900968867902419
0.0,-0.011834457647002796,NaN,0.018018505502678212,-1.0933072364384164,0.18333333333333332,0.1819201939045738,0.8660254037844386,0.5000000000000001,0.8486442574947509,0.5289640103269624,-0.433883739117558,-0.9009688679024191
0.02105322368065729,0.03509131981127019,NaN,0.032213795877461475,0.9718605830289658,0.18333333333333332,0.1819650792225863,0.8660254037844386,0.5000000000000001,0.9377521321470804,0.3473052528448203,-0.9749279121818236,-0.2225209339563146
0.014771496309024542,0.0,NaN,-0.002886180782941554,-0.1382615669999241,0.18333333333333332,0.18209973517662373,0.8660254037844386,0.5000000000000001,0.9680771188662043,-0.2506525322587204,0.7818314824680298,0.6234898018587336
0.008759001101169672,0.0,NaN,0.0,0.01709443335930004,0.18333333333333332,0.18214462049463623,0.8660254037844386,0.5000000000000001,0.8978045395707416,-0.4403941515576344,0.9749279121818236,-0.22252093395631434
-0.011696039763191298,-0.0057637047167501294,NaN,-0.005797117684325958,0.26886201312501107,0.18333333333333332,0.1821895058126487,0.8660254037844386,0.5000000000000001,0.7907757369376989,-0.6121059825476626,0.43388373911755823,-0.900968867902419
-0.011834457647002796,-0.008708149946738245,NaN,-0.0029110322624123154,-1.1436530140924133,0.18333333333333332,0.18223439113066117,0.8660254037844386,0.5000000000000001,0.6513724827222223,-0.758758122692791,-0.433883739117558,-0.9009688679024191
-0.005970166986503796,-0.002919888048380903,NaN,-0.014684729627967215,-0.22721687670184557,0.18333333333333332,0.18227927644867364,0.8660254037844386,0.5000000000000001,0.48530196253108104,-0.8743466161445821,-0.9749279121818236,-0.2225209339563146
-0.0029983197075159236,-0.005865119452398134,NaN,-0.011904902506318314,0.790310929013593,0.18333333333333332,0.18245881772072356,0.8660254037844386,0.5000000000000001,-0.29936312297335776,-0.9541392564000489,0.9749279121818236,-0.22252093395631434
-0.015129064885040799,-0.005899722127188271,NaN,-0.006006024060211922,0.21570857282669165,0.18333333333333332,0.18250370303873603,0.8660254037844386,0.5000000000000001,-0.4853019625310808,-0.8743466161445822,0.43388373911755823,-0.900968867902419
-0.01227009259181436,-0.01791092656653022,NaN,-0.0182375875497809,0.3386021628790379,0.18333333333333332,0.18254858835674853,0.8660254037844386,0.5000000000000001,-0.6513724827222217,-0.7587581226927913,-0.433883739117558,-0.9009688679024191
0.00308185433787132,-0.015174611367398637,NaN,0.0,-0.6017129746003135,0.18333333333333332,0.182593473674761,0.8660254037844386,0.5000000000000001,-0.7907757369376986,-0.6121059825476627,-0.9749279121818236,-0.2225209339563146
0.003072011236506984,0.012158202224198417,NaN,0.015221178406580696,0.2593724896106685,0.18333333333333332,0.18272812962879842,0.8660254037844386,0.5000000000000001,-0.9987165071710528,-0.05064916883871355,0.7818314824680298,0.6234898018587336
0.018237587549780793,0.017964551692280215,NaN,0.014992600189915798,-0.2449144064354385,0.18333333333333332,0.18277301494681092,0.8660254037844386,0.5000000000000001,-0.9884683243281114,0.15142777750457667,0.9749279121818236,-0.22252093395631434
0.006006024060211949,0.10950603192432591,NaN,0.1124779834266903,2.582461661991624,0.18333333333333332,0.1828179002648234,0.8660254037844386,0.5000000000000001,-0.9377521321470804,0.3473052528448203,0.43388373911755823,-0.900968867902419
0.09694194519223054,0.05182506786458595,NaN,0.036557595733797514,0.13067922780083938,0.18333333333333332,0.18286278558283586,0.8660254037844386,0.5000000000000001,-0.8486442574947509,0.5289640103269624,-0.433883739117558,-0.9009688679024191
0.039952210372423747,0.020000666706669435,NaN,0.03526813883745805,-0.3944187593954452,0.18333333333333332,0.18290767090084833,0.8660254037844386,0.5000000000000001,-0.7247927872291207,0.6889669190756859,-0.9749279121818236,-0.2225209339563146
0.04841694007766659,0.024451095864164336,NaN,0.01717848503910338,-0.037903313884927334,0.18333333333333332,0.18304232685488578,1.0,6.123233995736766e-17,0.39435585511331855,0.9189578116202306,0.7818314824680298,0.6234898018587336
-0.015037877364540559,0.0,NaN,-0.019656649601581196,0.15044139888329172,0.18333333333333332,0.18308721217289825,1.0,6.123233995736766e-17,0.5712682150947923,0.8207634412072763,0.9749279121818236,-0.22252093395631434
-0.010152371464017962,-0.034401426717332435,NaN,-0.0074721662906902025,-0.6515345857310516,0.18333333333333332,0.18313209749091072,1.0,6.123233995736766e-17,0.72479278722912,0.6889669190756866,0.43388373911755823,-0.900968867902419
-0.025841231183887328,-0.002502977247813841,NaN,-0.040821994520255166,-0.4808777118885511,0.18333333333333332,0.18317698280892322,1.0,6.123233995736766e-17,0.8486442574947509,0.5289640103269624,-0.433883739117558,-0.9009688679024191
-0.031917602968305085,-0.025382069339018914,NaN,0.010362787035546658,0.4380022248690767,0.18333333333333332,0.1832218681269357,1.0,6.123233995736766e-17,0.9377521321470804,0.3473052528448203,-0.9749279121818236,-0.2225209339563146
0.026668247082161273,0.007682339269313234,NaN,0.010256500167189061,-0.9811101124434278,0.18333333333333332,0.18335652408097314,1.0,6.123233995736766e-17,0.9680771188662043,-0.2506525322587204,0.7818314824680298,0.6234898018587336
-0.010582109330536972,-0.005115100666770377,NaN,-0.03372547366542051,-0.35828136998700605,0.18333333333333332,0.1834014093989856,1.0,6.123233995736766e-17,0.8978045395707416,-0.4403941515576344,0.9749279121818236,-0.22252093395631434
-0.008010560112965717,-0.02072613051711697,NaN,0.0026348865953894486,1.1838357159591932,0.18333333333333332,0.18344629471699808,1.0,6.123233995736766e-17,0.7907757369376989,-0.6121059825476626,0.43388373911755823,-0.900968867902419
0.008010560112965638,0.03599360264790545,NaN,0.03617965657750226,-0.20099883328297902,0.18333333333333332,0.18349118003501055,1.0,6.123233995736766e-17,0.6513724827222223,-0.758758122692791,-0.433883739117558,-0.9009688679024191
0.05182506786458595,0.015037877364540502,NaN,0.015113637810048106,0.22914236954346315,0.18333333333333332,0.18353606535302303,1.0,6.123233995736766e-17,0.48530196253108104,-0.8743466161445821,-0.9749279121818236,-0.2225209339563146
-0.010152371464017962,0.0,NaN,-0.005012541823544286,-1.082475251265137,0.18333333333333332,0.18367072130706047,1.0,6.123233995736766e-17,-0.10116832198743204,-0.9948693233918952,0.7818314824680298,0.6234898018587336
0.01769973006970571,0.014815085785140682,NaN,0.01743521252617963,1.2923250898054128,0.18333333333333332,0.18371560662507294,1.0,6.123233995736766e-17,-0.29936312297335776,-0.9541392564000489,0.9749279121818236,-0.22252093395631434
0.0025029772478138775,0.033738139631850204,NaN,0.01713613153890901,-0.14590958245195806,0.18333333333333332,0.18376049194308544,1.0,6.123233995736766e-17,-0.4853019625310808,-0.8743466161445822,0.43388373911755823,-0.900968867902419
0.014888612493750559,-0.009523881511255479,NaN,-0.014670189747793742,-1.0118253533806902,0.18333333333333332,0.1838053772610979,1.0,6.123233995736766e-17,-0.6513724827222217,-0.7587581226927913,-0.433883739117558,-0.9009688679024191
-0.004938281640582566,-0.004796172263493055,NaN,0.00736214567126886,0.3114709344157956,0.18333333333333332,0.18385026257911039,1.0,6.123233995736766e-17,-0.7907757369376986,-0.6121059825476627,-0.9749279121818236,-0.2225209339563146
0.004938281640582577,-0.004819286435948883,NaN,0.0073080440765248295,-0.8772786925991394,0.18333333333333332,0.18398491853314783,1.0,6.123233995736766e-17,-0.9987165071710528,-0.05064916883871355,0.7818314824680298,0.6234898018587336
-0.014888612493750637,0.004819286435948922,NaN,-0.012210013943413723,0.7252354951114458,0.18333333333333332,0.1840298038511603,1.0,6.123233995736766e-17,-0.9884683243281114,0.15142777750457667,0.9749279121818236,-0.22252093395631434
0.014888612493750559,0.07187347089626993,NaN,0.08249654667158561,2.196288466806825,0.18333333333333332,0.18407468916917277,1.0,6.123233995736766e-17,-0.9377521321470804,0.3473052528448203,0.43388373911755823,-0.900968867902419
0.052770035980064196,-0.006734168725308518,NaN,-0.03218668649590133,-1.1377674455530176,0.18333333333333332,0.18411957448718524,1.0,6.123233995736766e-17,-0.8486442574947509,0.5289640103269624,-0.433883739117558,-0.9009688679024191
-0.004683849312426314,-0.0022546546102221758,NaN,0.013921338518608014,-0.33224451693398305,0.18333333333333332,0.18416445980519774,1.0,6.123233995736766e-17,-0.7247927872291207,0.6889669190756859,-0.9749279121818236,-0.2225209339563146
-0.014184634991956413,-0.01822373642262426,NaN,-0.03278982282299084,-0.44070191420760846,0.18333333333333332,0.18429911575923516,1.0,6.123233995736766e-17,-0.20129852008866114,0.9795299412524943,0.7818314824680298,0.6234898018587336
0.014184634991956381,0.0,NaN,0.030483157683856444,0.1778283551021672,0.18333333333333332,0.18434400107724763,1.0,6.123233995736766e-17,-2.4492935982947064e-16,1.0,0.9749279121818236,-0.22252093395631434
0.002344809898719904,0.011428555512928503,NaN,0.0069043743877641,0.09350240588627028,0.18333333333333332,0.18438888639526013,0.8660254037844387,-0.4999999999999998,0.20129852008866006,0.9795299412524945,0.43388373911755823,-0.900968867902419
-0.016529444890676367,-0.004555816535860691,NaN,-0.013857034661426241,-0.6065379753030637,0.18333333333333332,0.1844337717132726,0.8660254037844387,-0.4999999999999998,0.39435585511331855,0.9189578116202306,-0.433883739117558,-0.9009688679024191
0.0,-0.016110678659816868,NaN,-0.01877989465159636,0.12268741037147318,0.18333333333333332,0.18447865703128508,0.8660254037844387,-0.4999999999999998,0.5712682150947923,0.8207634412072763,-0.9749279121818236,-0.2225209339563146
0.009478743954543739,0.06945665936510963,NaN,0.09055957704572713,0.9978075895461441,0.18333333333333332,0.18461331298532252,0.8660254037844387,-0.4999999999999998,0.9377521321470804,0.3473052528448203,0.7818314824680298,0.6234898018587336
0.059514127532407715,0.008620743043906955,NaN,-0.017467693040390832,0.1725335504277917,0.18333333333333332,0.184658198303335,0.8660254037844387,-0.4999999999999998,0.9884683243281114,0.1514277775045767,0.9749279121818236,-0.22252093395631434
-0.013423020332140661,-0.01513529109091293,NaN,-0.017778246021283944,-1.0014822721467989,0.18333333333333332,0.18470308362134746,0.8660254037844387,-0.4999999999999998,0.9987165071710528,-0.05064916883871264,0.43388373911755823,-0.900968867902419
0.0,-0.006557533520346837,NaN,0.008928630744301398,1.034330851102478,0.18333333333333332,0.18474796893935994,0.8660254037844387,-0.4999999999999998,0.9680771188662043,-0.2506525322587204,-0.433883739117558,-0.9009688679024191
0.0,0.0,NaN,0.013245226750020723,-0.7970725077660633,0.18333333333333332,0.18479285425737244,0.8660254037844387,-0.4999999999999998,0.8978045395707416,-0.4403941515576344,-0.9749279121818236,-0.2225209339563146
0.026668247082161273,0.0130720815673527,NaN,0.0043763745997987815,0.23583966692406877,0.18333333333333332,0.18492751021140985,0.8660254037844387,-0.4999999999999998,0.48530196253108104,-0.8743466161445821,0.7818314824680298,0.6234898018587336
-0.022173857494321967,-0.013072081567352775,NaN,-0.022075951699199847,-1.0290016883444657,0.18333333333333332,0.18497239552942235,0.8660254037844387,-0.4999999999999998,0.29936312297335804,-0.9541392564000488,0.9749279121818236,-0.22252093395631434
-0.01354422510775726,-0.015469785836380997,NaN,-0.00223450125745189,0.18136048031440405,0.18333333333333332,0.18501728084743482,0.8660254037844387,-0.4999999999999998,0.10116832198743272,-0.994869323391895,0.43388373911755823,-0.900968867902419
0.011299692411578383,0.004444451157604825,NaN,0.008908743678076694,0.07410797215372183,0.18333333333333332,0.1850621661654473,0.8660254037844387,-0.4999999999999998,-0.10116832198743204,-0.9948693233918952,-0.433883739117558,-0.9009688679024191
0.004484311833648023,0.0022147049966213827,NaN,-0.002219892071244391,-0.5833323145527387,0.18333333333333332,0.1852417074374972,0.8660254037844387,-0.4999999999999998,-0.7907757369376986,-0.6121059825476627,0.7818314824680298,0.6234898018587336
-0.05755341712152147,-0.0022147049966213164,NaN,-0.06424226872835359,1.295274962732722,0.18333333333333332,0.18528659275550968,0.8660254037844387,-0.4999999999999998,-0.8978045395707417,-0.44039415155763423,0.9749279121818236,-0.22252093395631434
-0.004750602758597865,-0.04535924311898053,NaN,0.007083998500527142,-0.5725689799312323,0.18333333333333332,0.18533147807352215,0.8660254037844387,-0.4999999999999998,-0.9680771188662041,-0.2506525322587213,0.43388373911755823,-0.900968867902419
0.009478743954543739,0.01611067865981675,NaN,0.01864855642473154,0.09619240306401584,0.18333333333333332,0.18537636339153465,0.8660254037844387,-0.4999999999999998,-0.9987165071710528,-0.05064916883871355,-0.433883739117558,-0.9009688679024191
0.009389740349839137,0.0,NaN,0.0069043743877641,0.09258078901142743,0.18333333333333332,0.18542124870954713,0.8660254037844387,-0.4999999999999998,-0.9884683243281114,0.15142777750457667,-0.9749279121818236,-0.2225209339563146
0.00930239266231341,0.009090971701252105,NaN,0.0,0.0891527054309729,0.18333333333333332,0.18555590466358454,0.8660254037844387,-0.4999999999999998,-0.7247927872291207,0.6889669190756859,0.7818314824680298,0.6234898018587336
-0.04255961441879589,-0.018265347977293313,NaN,-0.0350092646900452,-0.6085897925318824,0.18333333333333332,0.18560078998159704,0.8660254037844387,-0.4999999999999998,-0.5712682150947924,0.8207634412072763,0.9749279121818236,-0.22252093395631434
-0.02445109586416431,-0.04235927383914162,NaN,-0.03381964325287641,0.06791120561621036,0.18333333333333332,0.1856456752996095,0.8660254037844387,-0.4999999999999998,-0.3943558551133187,0.9189578116202306,0.43388373911755823,-0.900968867902419
0.0024723398494672735,-0.012091897261009942,NaN,0.0024538389980491493,0.17768117723745241,0.18333333333333332,0.18569056061762199,0.8660254037844387,-0.4999999999999998,-0.20129852008866114,0.9795299412524943,-0.433883739117558,-0.9009688679024191
0.0024659417911153496,0.026411951035758517,NaN,0.019418085857101516,0.4820867812486583,0.18333333333333332,0.18573544593563446,0.5000000000000003,-0.8660254037844385,0.20129852008866006,0.9795299412524945,-0.9749279121818236,-0.2225209339563146
0.0,-0.014320053774748558,NaN,-0.01696995498826182,-0.8270516379155248,0.18333333333333332,0.1858701018896719,0.5000000000000003,-0.8660254037844385,0.72479278722912,0.6889669190756866,0.7818314824680298,0.6234898018587336
-0.024938948347252066,-0.03423317164224221,NaN,-0.02977887084487516,0.5591892577519463,0.18333333333333332,0.18591498720768437,0.5000000000000003,-0.8660254037844385,0.8486442574947509,0.5289640103269624,0.9749279121818236,-0.22252093395631434
0.005037794029957081,0.004962789342129097,NaN,0.005025135432041909,-0.2685265571620274,0.18333333333333332,0.18595987252569685,0.5000000000000003,-0.8660254037844385,0.9377521321470804,0.3473052528448203,0.43388373911755823,-0.900968867902419
0.0,0.014742281737203431,NaN,0.02230560454399343,0.20148205453303045,0.18333333333333332,0.18600475784370935,0.5000000000000003,-0.8660254037844385,0.9884683243281114,0.1514277775045767,-0.433883739117558,-0.9009688679024191
0.01743521252617963,0.0,NaN,0.0,-0.05823241243958636,0.18333333333333332,0.18604964316172182,0.5000000000000003,-0.8660254037844385,0.9987165071710528,-0.05064916883871264,-0.9749279121818236,-0.2225209339563146
-0.019950783382490955,0.0024362033018998164,NaN,-0.027330739976035422,-0.7970044209427285,0.18333333333333332,0.18618429911575926,0.5000000000000003,-0.8660254037844385,0.7907757369376989,-0.6121059825476626,0.7818314824680298,0.6234898018587336
-0.012674594637663735,-0.03214135771581564,NaN,-0.0075855251301925036,0.7413240359091715,0.18333333333333332,0.18622918443377173,0.5000000000000003,-0.8660254037844385,0.6513724827222223,-0.758758122692791,0.9749279121818236,-0.22252093395631434
-0.005115100666770377,0.0050125418235441935,NaN,0.0050633019565466345,-0.7370413741171705,0.18333333333333332,0.1862740697517842,0.5000000000000003,-0.8660254037844385,0.48530196253108104,-0.8743466161445821,0.43388373911755823,-0.900968867902419
0.010204170174241668,0.024692612590371414,NaN,0.010050335853501506,1.035402419144806,0.18333333333333332,0.18631895506979668,0.5000000000000003,-0.8660254037844385,0.29936312297335804,-0.9541392564000488,-0.433883739117558,-0.9009688679024191
0.01010109598650392,-0.014742281737203431,NaN,0.004987541511038968,-0.3422552385848605,0.18333333333333332,0.18636384038780915,0.5000000000000003,-0.8660254037844385,0.10116832198743272,-0.994869323391895,-0.9749279121818236,-0.2225209339563146
0.0025095645757305567,-0.0024781645624778878,NaN,-0.0024905091050912904,-0.7639732331285577,0.18333333333333332,0.1864984963418466,0.5000000000000003,-0.8660254037844385,-0.4853019625310808,-0.8743466161445822,0.7818314824680298,0.6234898018587336
0.0025029772478138775,0.017220446299681304,NaN,0.017305594890231854,0.6292200932537128,0.18333333333333332,0.18654338165985906,0.5000000000000003,-0.8660254037844385,-0.6513724827222217,-0.7587581226927913,0.9749279121818236,-0.22252093395631434
0.024692612590371414,0.06148508365068089,NaN,0.06407899699521653,0.8052089092327196,0.18333333333333332,0.18658826697787156,0.5000000000000003,-0.8660254037844385,-0.7907757369376986,-0.6121059825476627,0.43388373911755823,-0.900968867902419
0.035932152838185336,-0.0022960719496560905,NaN,-0.0069205831552679835,-0.6023179641906565,0.18333333333333332,0.18663315229588404,0.5000000000000003,-0.8660254037844385,-0.8978045395707417,-0.44039415155763423,-0.433883739117558,-0.9009688679024191
-0.007083998500527013,-0.009237939682748955,NaN,-0.01398624197473984,-0.7235446577443163,0.18333333333333332,0.1866780376138965,0.5000000000000003,-0.8660254037844385,-0.9680771188662041,-0.2506525322587213,-0.9749279121818236,-0.2225209339563146
-0.002372335377022747,-0.011668885447258819,NaN,0.0,0.13455967035008853,0.18333333333333332,0.18685757888594642,0.5000000000000003,-0.8660254037844385,-0.8486442574947509,0.5289640103269624,0.9749279121818236,-0.22252093395631434
-0.007151546134232806,0.009345862418237599,NaN,-0.016568280678612577,-0.10616019582839067,0.18333333333333332,0.1869024642039589,0.5000000000000003,-0.8660254037844385,-0.7247927872291207,0.6889669190756859,0.43388373911755823,-0.900968867902419
-0.00961545869944198,-0.01877989465159636,NaN,-0.01200509176544343,-0.3797973613595865,0.18333333333333332,0.18694734952197137,0.5000000000000003,-0.8660254037844385,-0.5712682150947924,0.8207634412072763,-0.433883739117558,-0.9009688679024191
-0.019512814223581715,-0.02398196468648544,NaN,-0.009708814126960938,-0.25131442828090605,0.18333333333333332,0.18699223483998387,0.5000000000000003,-0.8660254037844385,-0.3943558551133187,0.9189578116202306,-0.9749279121818236,-0.2225209339563146
-0.00990107098271157,0.007255317953826689,NaN,-0.019705071079332444,1.672094965471966,0.18333333333333332,0.18712689079402128,1.2246467991473532e-16,-1.0,0.20129852008866006,0.9795299412524945,0.7818314824680298,0.6234898018587336
-0.04580953603129422,-0.036814120195371156,NaN,-0.02519024882855852,-0.5174387796577079,0.18333333333333332,0.18717177611203376,1.2246467991473532e-16,-1.0,0.39435585511331855,0.9189578116202306,0.9749279121818236,-0.22252093395631434
-0.02105340919783238,-0.025317807984289897,NaN,-0.03372547366542051,-0.49592922914079196,0.18333333333333332,0.18721666143004626,1.2246467991473532e-16,-1.0,0.5712682150947923,0.8207634412072763,0.43388373911755823,-0.900968867902419
0.0026562059550692524,-0.02334720379974351,NaN,0.0026348865953894486,-0.17843805676755697,0.18333333333333332,0.18726154674805873,1.2246467991473532e-16,-1.0,0.72479278722912,0.6889669190756866,-0.433883739117558,-0.9009688679024191
-0.007989551930431922,0.0207799651972007,NaN,0.020834086902842053,1.1200855063748445,0.18333333333333332,0.1873064320660712,1.2246467991473532e-16,-1.0,0.8486442574947509,0.5289640103269624,-0.9749279121818236,-0.2225209339563146
0.03158157205029884,0.012771408776784602,NaN,0.0,-1.1108261809620477,0.18333333333333332,0.18744108802010864,1.2246467991473532e-16,-1.0,0.9987165071710528,-0.05064916883871264,0.7818314824680298,0.6234898018587336
-0.005194816877104023,0.0,NaN,0.005141399500418652,0.7707054149058198,0.18333333333333332,0.18748597333812111,1.2246467991473532e-16,-1.0,0.9680771188662043,-0.2506525322587204,0.9749279121818236,-0.22252093395631434
0.0,0.0025350101225590236,NaN,0.005115100666770409,-0.7081850579244858,0.18333333333333332,0.1875308586561336,1.2246467991473532e-16,-1.0,0.8978045395707416,-0.4403941515576344,0.43388373911755823,-0.900968867902419
0.02570835671020703,0.022528958540657153,NaN,0.030153038170687457,-0.9765095918672098,0.18333333333333332,0.18757574397414606,1.2246467991473532e-16,-1.0,0.7907757369376989,-0.6121059825476626,-0.433883739117558,-0.9009688679024191
0.0025350101225590236,-0.004962789342129014,NaN,-0.020000666706669543,0.2069207158073224,0.18333333333333332,0.18762062929215856,1.2246467991473532e-16,-1.0,0.6513724827222223,-0.758758122692791,-0.9749279121818236,-0.2225209339563146
-0.0025350101225590366,0.0,NaN,0.015037877364540502,0.31077778724643024,0.18333333333333332,0.18775528524619597,1.2246467991473532e-16,-1.0,0.10116832198743272,-0.994869323391895,0.7818314824680298,0.6234898018587336
0.007585525130192414,-0.0024905091050912904,NaN,-0.01000008333458331,-0.4403118394383325,0.18333333333333332,0.18780017056420845,1.2246467991473532e-16,-1.0,-0.10116832198743204,-0.9948693233918952,0.9749279121818236,-0.22252093395631434
-0.015228718342628851,-0.012547368259449203,NaN,-0.010101095986503933,0.531879032963823,0.18333333333333332,0.18784505588222095,1.2246467991473532e-16,-1.0,-0.29936312297335776,-0.9541392564000489,0.43388373911755823,-0.900968867902419
-0.015464223264852386,-0.005063301956546762,NaN,-0.020513539833102903,-0.32158362412746233,0.18333333333333332,0.18788994120023342,1.2246467991473532e-16,-1.0,-0.4853019625310808,-0.8743466161445822,-0.433883739117558,-0.9009688679024191
-0.023654349430750503,-0.025708356710206923,NaN,-0.020943173845243135,0.05859416426605281,0.18333333333333332,0.1879348265182459,1.2246467991473532e-16,-1.0,-0.6513724827222217,-0.7587581226927913,-0.9749279121818236,-0.2225209339563146
0.0,-0.0052219439811517126,NaN,0.002642170505454234,0.6127656621089852,0.18333333333333332,0.18806948247228333,1.2246467991473532e-16,-1.0,-0.9680771188662041,-0.2506525322587213,0.7818314824680298,0.6234898018587336
0.0026562059550692524,0.002614539934779336,NaN,0.0026348865953894486,-0.6209289727481462,0.18333333333333332,0.1881143677902958,1.2246467991473532e-16,-1.0,-0.9987165071710528,-0.05064916883871355,0.9749279121818236,-0.22252093395631434
-0.013351495071817238,-0.005235613217405925,NaN,-0.010582109330536972,0.1376213778760477,0.18333333333333332,0.18815925310830828,1.2246467991473532e-16,-1.0,-0.9884683243281114,0.15142777750457667,0.43388373911755823,-0.900968867902419
0.005361943141385373,-0.005263169198906581,NaN,0.0,-0.15415067982725836,0.18333333333333332,0.18820413842632075,1.2246467991473532e-16,-1.0,-0.9377521321470804,0.3473052528448203,-0.433883739117558,-0.9009688679024191
-0.03261158558876089,-0.010610177394227805,NaN,-0.02150620522096362,0.550046336919272,0.18333333333333332,0.18824902374433325,1.2246467991473532e-16,-1.0,-0.8486442574947509,0.5289640103269624,-0.9749279121818236,-0.2225209339563146
0.01643872634315994,-0.0026703913162823365,NaN,0.013495645107997997,0.3114361584598881,0.18333333333333332,0.18838367969837067,1.2246467991473532e-16,-1.0,-0.3943558551133187,0.9189578116202306,0.7818314824680298,0.6234898018587336
0.013495645107997997,0.01328056871050999,NaN,0.008010560112965638,-0.4671906878691208,0.18333333333333332,0.18842856501638316,1.2246467991473532e-16,-1.0,-0.20129852008866114,0.9795299412524943,0.9749279121818236,-0.22252093395631434
0.0026772141376030494,-0.0026421705054543326,NaN,0.0026562059550692524,-0.4026600571805558,0.18333333333333332,0.18847345033439564,-0.4999999999999997,-0.8660254037844388,0.20129852008866006,0.9795299412524945,0.43388373911755823,-0.900968867902419
0.0,0.0,NaN,-0.0026562059550692884,-1.041453874828161,0.18333333333333332,0.1885183356524081,-0.4999999999999997,-0.8660254037844388,0.39435585511331855,0.9189578116202306,-0.433883739117558,-0.9009688679024191
-0.01075279177626185,-0.007968006888773426,NaN,-0.010695289116747919,1.0826119473216687,0.18333333333333332,0.18869787692445802,-0.4999999999999997,-0.8660254037844388,0.9377521321470804,0.3473052528448203,0.7818314824680298,0.6234898018587336
-0.03297001923756983,-0.010723961608146626,NaN,-0.03557129577051933,0.4214654494546055,0.18333333333333332,0.1887427622424705,-0.4999999999999997,-0.8660254037844388,0.9884683243281114,0.1514277775045767,0.9749279121818236,-0.22252093395631434
-0.019746589045515524,-0.030098195672511853,NaN,-0.014025645368852827,1.0572022317963001,0.18333333333333332,0.18878764756048297,-0.4999999999999997,-0.8660254037844388,0.9987165071710528,-0.05064916883871264,0.43388373911755823,-0.900968867902419
-0.008583917580710414,-0.02247285585205863,NaN,-0.005665737535677308,-0.2730832730306283,0.18333333333333332,0.18883253287849547,-0.4999999999999997,-0.8660254037844388,0.9680771188662043,-0.2506525322587204,-0.433883739117558,-0.9009688679024191
-0.00287752393380858,0.002837054239310002,NaN,-0.011428695823622744,-0.6097655716208943,0.18333333333333332,0.18887741819650794,-0.4999999999999997,-0.8660254037844388,0.8978045395707416,-0.4403941515576344,-0.9749279121818236,-0.2225209339563146
-0.00868329846726747,-0.011396132749160756,NaN,-0.008657885829633801,0.17488657830643647,0.18333333333333332,0.18901207415054536,-0.4999999999999997,-0.8660254037844388,0.48530196253108104,-0.8743466161445821,0.7818314824680298,0.6234898018587336
0.0,-0.005747141247580658,NaN,0.0028941811128838737,0.2978909778220242,0.18333333333333332,0.18905695946855786,-0.4999999999999997,-0.8660254037844388,0.29936312297335804,-0.9541392564000488,0.9749279121818236,-0.22252093395631434
0.002902936571442143,0.058757982328265124,NaN,0.03409421134297614,1.4888809498949918,0.18333333333333332,0.18910184478657033,-0.4999999999999997,-0.8660254037844388,0.10116832198743272,-0.994869323391895,0.43388373911755823,-0.900968867902419
0.03698839245585985,-0.013679935763168,NaN,0.013870016005062654,-0.8961817789514415,0.18333333333333332,0.1891467301045828,-0.4999999999999997,-0.8660254037844388,-0.10116832198743204,-0.9948693233918952,-0.433883739117558,-0.9009688679024191
0.011111225425070849,0.021799224716904635,NaN,0.00275086523097771,-0.6555770218959808,0.18333333333333332,0.18919161542259527,-0.4999999999999997,-0.8660254037844388,-0.29936312297335776,-0.9541392564000489,-0.9749279121818236,-0.2225209339563146
-0.028013036227674006,-0.01904835948592696,NaN,-0.027856954502966224,0.49476818687013213,0.18333333333333332,0.18932627137663272,-0.4999999999999997,-0.8660254037844388,-0.7907757369376986,-0.6121059825476627,0.7818314824680298,0.6234898018587336
-0.0028447782429123743,-0.011049836186584935,NaN,-0.008510515778589703,-0.3119551088079874,0.18333333333333332,0.1893711566946452,-0.4999999999999997,-0.8660254037844388,-0.8978045395707417,-0.44039415155763423,0.9749279121818236,-0.22252093395631434
-0.01434762229746044,-0.01680711831638129,NaN,-0.01434762229746044,-0.5407530443074638,0.18333333333333332,0.18941604201265766,-0.4999999999999997,-0.8660254037844388,-0.9680771188662041,-0.2506525322587213,0.43388373911755823,-0.900968867902419
-0.011628037995119099,-0.0028286832963673194,NaN,0.008633322030522163,0.560218379095567,0.18333333333333332,0.18946092733067016,-0.4999999999999997,-0.8660254037844388,-0.9987165071710528,-0.05064916883871355,-0.433883739117558,-0.9009688679024191
0.01739174271186924,0.00282868329636719,NaN,0.008559078509850784,-1.3369306380015546,0.18333333333333332,0.18950581264868263,-0.4999999999999997,-0.8660254037844388,-0.9884683243281114,0.15142777750457667,-0.9749279121818236,-0.2225209339563146
0.0,0.005633817718256064,NaN,-0.011428695823622744,0.6977238475873572,0.18333333333333332,0.18964046860272007,-0.4999999999999997,-0.8660254037844388,-0.7247927872291207,0.6889669190756859,0.7818314824680298,0.6234898018587336
-0.0057637047167501294,0.0,NaN,0.02272825107755609,1.232333921947634,0.18333333333333332,0.18968535392073255,-0.4999999999999997,-0.8660254037844388,-0.5712682150947924,0.8207634412072763,0.9749279121818236,-0.22252093395631434
0.02849195579430624,0.01947227155373247,NaN,0.0056022555486697516,0.18209960584420323,0.18333333333333332,0.18973023923874502,-0.4999999999999997,-0.8660254037844388,-0.3943558551133187,0.9189578116202306,0.43388373911755823,-0.900968867902419
-0.0028127694466118067,-0.005524875000441345,NaN,-0.0027970336542516446,-1.4756290888187569,0.18333333333333332,0.1897751245567575,-0.4999999999999997,-0.8660254037844388,-0.20129852008866114,0.9795299412524943,-0.433883739117558,-0.9009688679024191
0.0028127694466117533,-0.0027740959551659796,NaN,-0.002805221894418277,-0.31059633197465675,0.18333333333333332,0.18982000987476996,-0.4999999999999997,-0.8660254037844388,-2.4492935982947064e-16,1.0,-0.9749279121818236,-0.2225209339563146
-0.0028127694466118067,0.0,NaN,0.0056022555486697516,0.6456806433210216,0.18333333333333332,0.1899546658288074,-0.8660254037844385,-0.5000000000000004,0.5712682150947923,0.8207634412072763,0.7818314824680298,0.6234898018587336
-0.005649731568011462,0.0,NaN,0.0,-0.3951023210726177,0.18333333333333332,0.18999955114681988,-0.8660254037844385,-0.5000000000000004,0.72479278722912,0.6889669190756866,0.9749279121818236,-0.22252093395631434
0.014064756563293026,0.027398974188114347,NaN,0.0329700192375699,0.38111607909787787,0.18333333333333332,0.19004443646483238,-0.8660254037844385,-0.5000000000000004,0.8486442574947509,0.5289640103269624,0.43388373911755823,-0.900968867902419
0.02210034700066592,0.018742343706693736,NaN,-0.005420067469339145,1.0796543749234957,0.18333333333333332,0.19008932178284485,-0.8660254037844385,-0.5000000000000004,0.9377521321470804,0.3473052528448203,-0.433883739117558,-0.9009688679024191
-0.008230330995603337,-0.01874234370669372,NaN,-0.008185417366847242,-2.3341794584122626,0.18333333333333332,0.19013420710085732,-0.8660254037844385,-0.5000000000000004,0.9884683243281114,0.1514277775045767,-0.9749279121818236,-0.2225209339563146
0.0,-0.005420067469339145,NaN,0.008185417366847351,1.8181569410790799,0.18333333333333332,0.19026886305489477,-0.8660254037844385,-0.5000000000000004,0.8978045395707416,-0.4403941515576344,0.7818314824680298,0.6234898018587336
0.019100003232507087,0.03208831455150045,NaN,0.02681125745065677,0.029617169703646362,0.18333333333333332,0.19031374837290724,-0.8660254037844385,-0.5000000000000004,0.7907757369376989,-0.6121059825476626,0.9749279121818236,-0.22252093395631434
-0.005420067469339145,0.005249355886143745,NaN,-0.024097386172146705,-0.9290172864133778,0.18333333333333332,0.1903586336909197,-0.8660254037844385,-0.5000000000000004,0.6513724827222223,-0.758758122692791,0.43388373911755823,-0.900968867902419
-0.013679935763168,-0.03733767043764424,NaN,-0.008163476046074756,-1.0647107369924282,0.18333333333333332,0.19040351900893218,-0.8660254037844385,-0.5000000000000004,0.48530196253108104,-0.8743466161445821,-0.433883739117558,-0.9009688679024191
0.00549451839632063,0.018843250561883317,NaN,0.016260520871780326,0.8754687373538999,0.18333333333333332,0.19044840432694468,-0.8660254037844385,-0.5000000000000004,0.29936312297335804,-0.9541392564000488,-0.9749279121818236,-0.2225209339563146
0.0,-0.0026703913162823365,NaN,-0.008097044825705578,-0.01197619104671565,0.18333333333333332,0.1905830602809821,-0.8660254037844385,-0.5000000000000004,-0.29936312297335776,-0.9541392564000489,0.7818314824680298,0.6234898018587336
-0.01379348935192799,-0.01345898796709089,NaN,-0.0163938070416781,1.5067511951606762,0.18333333333333332,0.19062794559899457,-0.8660254037844385,-0.5000000000000004,-0.4853019625310808,-0.8743466161445822,0.9749279121818236,-0.22252093395631434
0.005540180375615351,-0.008163476046074756,NaN,0.008230330995603195,-1.3006189896730032,0.18333333333333332,0.19067283091700707,-0.8660254037844385,-0.5000000000000004,-0.6513724827222217,-0.7587581226927913,0.43388373911755823,-0.900968867902419
0.008253308976312521,0.002728680961517823,NaN,-0.0027358125992825956,-0.6737290947028438,0.18333333333333332,0.19071771623501954,-0.8660254037844385,-0.5000000000000004,-0.7907757369376986,-0.6121059825476627,-0.433883739117558,-0.9009688679024191
-0.008253308976312594,-0.0027286809615178634,NaN,-0.0054945183963207595,1.4006144148946391,0.18333333333333332,0.190762601553032,-0.8660254037844385,-0.5000000000000004,-0.8978045395707417,-0.44039415155763423,-0.9749279121818236,-0.2225209339563146
0.0,-0.0027358125992825956,NaN,0.00549451839632063,0.10132394363288555,0.18333333333333332,0.19089725750706946,-0.8660254037844385,-0.5000000000000004,-0.9884683243281114,0.15142777750457667,0.7818314824680298,0.6234898018587336
0.002758790579991911,0.01630470632058384,NaN,0.010899288645357375,-0.47644833468837755,0.18333333333333332,0.19094214282508193,-0.8660254037844385,-0.5000000000000004,-0.9377521321470804,0.3473052528448203,0.9749279121818236,-0.22252093395631434
0.01095901195712116,-0.0026992214843974435,NaN,-0.005434795084556889,-1.3523928094442093,0.18333333333333332,0.1909870281430944,-0.8660254037844385,-0.5000000000000004,-0.8486442574947509,0.5289640103269624,0.43388373911755823,-0.900968867902419
0.0,-0.005420067469339145,NaN,0.0,-0.06899287148695143,0.18333333333333332,0.19103191346110687,-0.8660254037844385,-0.5000000000000004,-0.7247927872291207,0.6889669190756859,-0.433883739117558,-0.9009688679024191
0.0,0.0,NaN,0.0,0.7949298748698876,0.18333333333333332,0.19107679877911937,-0.8660254037844385,-0.5000000000000004,-0.5712682150947924,0.8207634412072763,-0.9749279121818236,-0.2225209339563146
-0.0027286809615178634,-0.0027209238060468053,NaN,-0.0027286809615178634,-0.2312407615468291,0.18333333333333332,0.1912114547331568,-0.8660254037844385,-0.5000000000000004,-2.4492935982947064e-16,1.0,0.7818314824680298,0.6234898018587336
0.002728680961517823,0.00272092380604691,NaN,0.002728680961517823,0.5537916596494339,0.18333333333333332,0.1912563400511693,-1.0,-1.8369701987210297e-16,0.20129852008866006,0.9795299412524945,0.9749279121818236,-0.22252093395631434
0.00272092380604691,0.008119288953736597,NaN,0.005434795084556898,-0.8016278235540153,0.18333333333333332,0.19130122536918176,-1.0,-1.8369701987210297e-16,0.39435585511331855,0.9189578116202306,0.43388373911755823,-0.900968867902419
-0.005449604767564703,-0.0026992214843974435,NaN,-0.008163476046074756,0.7188555372701524,0.18333333333333332,0.19134611068719423,-1.0,-1.8369701987210297e-16,0.5712682150947923,0.8207634412072763,-0.433883739117558,-0.9009688679024191
-0.02210034700066597,-0.01634913800152941,NaN,-0.016529301951210582,0.39011953843350405,0.18333333333333332,0.1913909960052067,-1.0,-1.8369701987210297e-16,0.72479278722912,0.6889669190756866,-0.9749279121818236,-0.2225209339563146
-0.051587368790493235,-0.019417914890292015,NaN,-0.04255943750531516,-0.03496859783774674,0.18333333333333332,0.19157053727725662,-1.0,-1.8369701987210297e-16,0.9987165071710528,-0.05064916883871264,0.9749279121818236,-0.22252093395631434
0.002937038662021652,-0.03129717768872447,NaN,-0.0029029365714421666,-0.47929937011921675,0.18333333333333332,0.1916154225952691,-1.0,-1.8369701987210297e-16,0.9680771188662043,-0.2506525322587204,0.43388373911755823,-0.900968867902419
0.008759001101169672,0.020029454779682824,NaN,0.014430439714848076,-0.24640041347847697,0.18333333333333332,0.1916603079132816,-1.0,-1.8369701987210297e-16,0.8978045395707416,-0.4403941515576344,-0.433883739117558,-0.9009688679024191
0.0,-0.011396132749160756,NaN,-0.008633322030522137,0.05715841383994862,0.18333333333333332,0.19170519323129406,-1.0,-1.8369701987210297e-16,0.7907757369376989,-0.6121059825476626,-0.9749279121818236,-0.2225209339563146
0.002902936571442143,-0.002869617313772027,NaN,0.002886180782941482,0.5355182363563621,0.18333333333333332,0.19183984918533148,-1.0,-1.8369701987210297e-16,0.29936312297335804,-0.9541392564000488,0.7818314824680298,0.6234898018587336
0.0028941811128838737,0.01142869582362285,NaN,-0.002886180782941554,-0.10265415406008334,0.18333333333333332,0.19188473450334398,-1.0,-1.8369701987210297e-16,0.10116832198743272,-0.994869323391895,0.9749279121818236,-0.22252093395631434
0.0,-0.005698021114637779,NaN,0.011494379425735212,0.1267517056391438,0.18333333333333332,0.19192961982135645,-1.0,-1.8369701987210297e-16,-0.10116832198743204,-0.9948693233918952,0.43388373911755823,-0.900968867902419
0.002886180782941482,0.0,NaN,-0.008608198642793566,-1.5040773967762742,0.18333333333333332,0.19197450513936892,-1.0,-1.8369701987210297e-16,-0.29936312297335776,-0.9541392564000489,-0.433883739117558,-0.9009688679024191
-0.029241844375097206,-0.011494379425735134,NaN,-0.02627906035764696,2.4187795659652913,0.18333333333333332,0.1920193904573814,-1.0,-1.8369701987210297e-16,-0.4853019625310808,-0.8743466161445822,-0.9749279121818236,-0.2225209339563146
0.0029627840174501876,-0.020438487632581524,NaN,0.0029543919421240105,-1.2679815241266115,0.18333333333333332,0.19215404641141884,-1.0,-1.8369701987210297e-16,-0.8978045395707417,-0.44039415155763423,0.7818314824680298,0.6234898018587336
-0.0029627840174501563,0.0,NaN,0.0,-0.16551443847757344,0.18333333333333332,0.1921989317294313,-1.0,-1.8369701987210297e-16,-0.9680771188662041,-0.2506525322587213,0.9749279121818236,-0.22252093395631434
-0.01494814254908002,-0.008889127461938545,NaN,-0.014859294448442384,0.7793248768009977,0.18333333333333332,0.19224381704744378,-1.0,-1.8369701987210297e-16,-0.9987165071710528,-0.05064916883871355,0.43388373911755823,-0.900968867902419
-0.006042314455962586,0.0059347355198145265,NaN,-0.006006024060211922,-0.07622736538788426,0.18333333333333332,0.19228870236545628,-1.0,-1.8369701987210297e-16,-0.9884683243281114,0.15142777750457667,-0.433883739117558,-0.9009688679024191
-0.04651982187251088,-0.01791092656653022,NaN,-0.049392755329576474,-0.28001080195512945,0.18333333333333332,0.19233358768346875,-1.0,-1.8369701987210297e-16,-0.9377521321470804,0.3473052528448203,-0.9749279121818236,-0.2225209339563146
-0.028987730635634368,-0.0182375875497809,NaN,0.03115516777979548,0.6393225305461652,0.18333333333333332,0.1924682436375062,-1.0,-1.8369701987210297e-16,-0.5712682150947924,0.8207634412072763,0.7818314824680298,0.6234898018587336
0.06942850643176293,0.030213778596496633,NaN,0.006116227017436054,0.06035350889624366,0.18333333333333332,0.19251312895551867,-1.0,-1.8369701987210297e-16,-0.3943558551133187,0.9189578116202306,0.9749279121818236,-0.22252093395631434
-0.02469261259037152,-0.027150802414114248,NaN,-0.018462062839735442,-0.8552833837661313,0.18333333333333332,0.19255801427353114,-1.0,-1.8369701987210297e-16,-0.20129852008866114,0.9795299412524943,0.43388373911755823,-0.900968867902419
-0.01892800988551891,-0.012307845363119236,NaN,-0.00936025142680381,1.1238025374966683,0.18333333333333332,0.1926028995915436,-0.866025403784439,0.49999999999999933,0.20129852008866006,0.9795299412524945,-0.433883739117558,-0.9009688679024191
0.009508980508933689,0.0,NaN,0.012461218068366298,0.8271966810661163,0.18333333333333332,0.19264778490955609,-0.866025403784439,0.49999999999999933,0.39435585511331855,0.9189578116202306,-0.9749279121818236,-0.2225209339563146
0.0,0.0030910036063585625,NaN,-0.012461218068366245,-1.4514615545706453,0.18333333333333332,0.19278244086359353,-0.866025403784439,0.49999999999999933,0.8486442574947509,0.5289640103269624,0.7818314824680298,0.6234898018587336
-0.022329668937995217,-0.0155522216747249,NaN,-0.02218810630812209,-0.006211200092640636,0.18333333333333332,0.192827326181606,-0.866025403784439,0.49999999999999933,0.9377521321470804,0.3473052528448203,0.9749279121818236,-0.22252093395631434
-0.006472514505617479,-0.02218810630812209,NaN,-0.0064308903302904025,-1.0352426747355203,0.18333333333333332,0.1928722114996185,-0.866025403784439,0.49999999999999933,0.9884683243281114,0.1514277775045767,0.43388373911755823,-0.900968867902419
0.0,0.009569644778532801,NaN,0.012820688429061469,1.2627381135521876,0.18333333333333332,0.19291709681763097,-0.866025403784439,0.49999999999999933,0.9987165071710528,-0.05064916883871264,-0.433883739117558,-0.9009688679024191
0.00647251450561752,-0.0031798466797617123,NaN,-0.00638979809877101,-0.6710603931571018,0.18333333333333332,0.19296198213564345,-0.866025403784439,0.49999999999999933,0.9680771188662043,-0.2506525322587204,-0.9749279121818236,-0.2225209339563146
-0.0032308230566884485,-0.00638979809877101,NaN,0.0,0.16106155736710526,0.18333333333333332,0.1930966380896809,-0.866025403784439,0.49999999999999933,0.6513724827222223,-0.758758122692791,0.7818314824680298,0.6234898018587336
0.0032308230566884407,0.0032001977311511462,NaN,-0.0032100793757457668,-1.254831221559427,0.18333333333333332,0.19314152340769336,-0.866025403784439,0.49999999999999933,0.48530196253108104,-0.8743466161445821,0.9749279121818236,-0.22252093395631434
0.0,-0.0032001977311510474,NaN,-0.0032208109545446757,-0.4499168706789983,0.18333333333333332,0.19318640872570583,-0.866025403784439,0.49999999999999933,0.29936312297335804,-0.9541392564000488,0.43388373911755823,-0.900968867902419
0.0,0.0,NaN,0.003220810954544686,0.6346509738783368,0.18333333333333332,0.1932312940437183,-0.866025403784439,0.49999999999999933,0.10116832198743272,-0.994869323391895,-0.433883739117558,-0.9009688679024191
0.003220810954544686,0.006389798098770988,NaN,0.0,2.1534419348974096,0.18333333333333332,0.1932761793617308,-0.866025403784439,0.49999999999999933,-0.10116832198743204,-0.9948693233918952,-0.9749279121818236,-0.2225209339563146
-0.006451634011233105,-0.003189600367619951,NaN,0.0064102771068968115,-1.6670077642555783,0.18333333333333332,0.19341083531576822,-0.866025403784439,0.49999999999999933,-0.6513724827222217,-0.7587581226927913,0.7818314824680298,0.6234898018587336
-0.00975637247012268,-0.009631088061441487,NaN,-0.022618283588252668,1.9212704451181644,0.18333333333333332,0.1934557206337807,-0.866025403784439,0.49999999999999933,-0.7907757369376986,-0.6121059825476627,0.9749279121818236,-0.22252093395631434
-0.006557400546159052,-0.0032308230566884485,NaN,0.0,-1.258200719795497,0.18333333333333332,0.1935006059517932,-0.866025403784439,0.49999999999999933,-0.8978045395707417,-0.44039415155763423,0.43388373911755823,-0.900968867902419
-0.026668247082161294,-0.013029497699845433,NaN,-0.019802627296179754,-0.39219477118726775,0.18333333333333332,0.19354549126980566,-0.866025403784439,0.49999999999999933,-0.9680771188662041,-0.2506525322587213,-0.433883739117558,-0.9009688679024191
-0.010186636995901237,-0.00988495934778839,NaN,-0.020202707317519466,0.2748887209918714,0.18333333333333332,0.19359037658781814,-0.866025403784439,0.49999999999999933,-0.9987165071710528,-0.05064916883871355,-0.9749279121818236,-0.2225209339563146
0.0,-0.013333530869465144,NaN,0.0033957958999516363,-1.2315307483895939,0.18333333333333332,0.19372503254185558,-0.866025403784439,0.49999999999999933,-0.8486442574947509,0.5289640103269624,0.7818314824680298,0.6234898018587336
0.006802745910474162,0.01663952044010374,NaN,0.020134904284827438,0.3448404862917296,0.18333333333333332,0.19376991785986805,-0.866025403784439,0.49999999999999933,-0.7247927872291207,0.6889669190756859,0.9749279121818236,-0.22252093395631434
0.020134904284827438,0.022839290533683783,NaN,0.013201509199197324,1.4395388756387029,0.18333333333333332,0.19381480317788052,-0.866025403784439,0.49999999999999933,-0.5712682150947924,0.8207634412072763,0.43388373911755823,-0.900968867902419
0.0,-0.01626032075653395,NaN,-0.00988495934778839,-0.7105822423820467,0.18333333333333332,0.193859688495893,-0.866025403784439,0.49999999999999933,-0.3943558551133187,0.9189578116202306,-0.433883739117558,-0.9009688679024191
0.0,0.0032731252297228076,NaN,0.0131580845775112,0.4335429228627047,0.18333333333333332,0.1939045738139055,-0.866025403784439,0.49999999999999933,-0.20129852008866114,0.9795299412524943,-0.9749279121818236,-0.2225209339563146
0.026231006899042772,0.03215711163453144,NaN,0.019418085857101516,0.9273047725960215,0.18333333333333332,0.1940392297679429,-0.5000000000000012,0.8660254037844379,0.39435585511331855,0.9189578116202306,0.7818314824680298,0.6234898018587336
0.012861911118129907,0.025001302205417186,NaN,0.03774032798284711,-1.105076435287999,0.18333333333333332,0.19408411508595538,-0.5000000000000012,0.8660254037844379,0.5712682150947923,0.8207634412072763,0.9749279121818236,-0.22252093395631434
0.022117610253138877,0.0,NaN,-0.00930220252165789,0.9492060645812141,0.18333333333333332,0.19412900040396788,-0.5000000000000012,0.8660254037844379,0.72479278722912,0.6889669190756866,0.43388373911755823,-0.900968867902419
0.003120317476899233,0.012270092591814401,NaN,0.015456068096036085,-0.8563750785383203,0.18333333333333332,0.19417388572198035,-0.5000000000000012,0.8660254037844379,0.8486442574947509,0.5289640103269624,-0.433883739117558,-0.9009688679024191
0.00311023227373683,0.0030443278984032657,NaN,0.006116227017436054,-1.0267865540968542,0.18333333333333332,0.19421877103999283,-0.5000000000000012,0.8660254037844379,0.9377521321470804,0.3473052528448203,-0.9749279121818236,-0.2225209339563146
0.009273824585792366,0.0,NaN,0.0030443278984032657,-0.5720692490067094,0.18333333333333332,0.19435342699403027,-0.5000000000000012,0.8660254037844379,0.9680771188662043,-0.2506525322587204,0.7818314824680298,0.6234898018587336
0.021309598786287815,0.018072777736999217,NaN,0.009077032633941716,0.4112960284189576,0.18333333333333332,0.19439831231204274,-0.5000000000000012,0.8660254037844379,0.8978045395707416,-0.4403941515576344,0.9749279121818236,-0.22252093395631434
0.0,0.0,NaN,0.008995745103057489,0.8783714970118612,0.18333333333333332,0.19444319763005521,-0.5000000000000012,0.8660254037844379,0.7907757369376989,-0.6121059825476626,0.43388373911755823,-0.900968867902419
0.0,0.008915181463472671,NaN,-0.002989721042845722,-0.3355065195012541,0.18333333333333332,0.1944880829480677,-0.5000000000000012,0.8660254037844379,0.6513724827222223,-0.758758122692791,-0.433883739117558,-0.9009688679024191
-0.024391453124159124,-0.01791092656653022,NaN,-0.021180635427610433,0.41443377809092485,0.18333333333333332,0.1945329682660802,-0.5000000000000012,0.8660254037844379,0.48530196253108104,-0.8743466161445821,-0.9749279121818236,-0.2225209339563146
-0.031350529884076044,-0.024391453124159124,NaN,-0.031058391131902834,-0.22986250156295476,0.18333333333333332,0.1946676242201176,-0.5000000000000012,0.8660254037844379,-0.10116832198743204,-0.9948693233918952,0.7818314824680298,0.6234898018587336
0.0063492276786587445,-0.012422519998557209,NaN,0.00628932770041725,0.564419640248068,0.18333333333333332,0.1947125095381301,-0.5000000000000012,0.8660254037844379,-0.29936312297335776,-0.9541392564000489,0.9749279121818236,-0.22252093395631434
0.0,0.0,NaN,-0.009449080530692395,0.615099287032842,0.18333333333333332,0.19475739485614257,-0.5000000000000012,0.8660254037844379,-0.4853019625310808,-0.8743466161445822,0.43388373911755823,-0.900968867902419
-0.003169380998897074,-0.006269613013595374,NaN,0.0031597528302750332,-0.5805589617806659,0.18333333333333332,0.19480228017415505,-0.5000000000000012,0.8660254037844379,-0.6513724827222217,-0.7587581226927913,-0.433883739117558,-0.9009688679024191
0.006329133829172032,0.006269613013595395,NaN,0.009419029376585049,-1.791759469228055,0.18333333333333332,0.19484716549216752,-0.5000000000000012,0.8660254037844379,-0.7907757369376986,-0.6121059825476627,-0.9749279121818236,-0.2225209339563146
-0.012698580876553714,-0.0031297016761677285,NaN,-0.01574816320575719,0.790139446547255,0.18333333333333332,0.19498182144620496,-0.5000000000000012,0.8660254037844379,-0.9987165071710528,-0.05064916883871355,0.7818314824680298,0.6234898018587336
0.0,-0.009449080530692395,NaN,0.0,-0.23582871084152554,0.18333333333333332,0.19502670676421743,-0.5000000000000012,0.8660254037844379,-0.9884683243281114,0.15142777750457667,0.9749279121818236,-0.22252093395631434
0.0,0.006309169193264756,NaN,-0.0031798466797617123,2.1375598965202114,0.18333333333333332,0.1950715920822299,-0.5000000000000012,0.8660254037844379,-0.9377521321470804,0.3473052528448203,0.43388373911755823,-0.900968867902419
0.003189600367619866,-0.003149416362989629,NaN,0.009508980508933689,-1.8686703234177975,0.18333333333333332,0.19516136271825488,-0.5000000000000012,0.8660254037844379,-0.7247927872291207,0.6889669190756859,-0.9749279121818236,-0.2225209339563146
0.003179846679761616,0.021841549375142277,NaN,0.01564957912722105,0.3353101214410356,0.18333333333333332,0.1952960186722923,-0.5000000000000012,0.8660254037844379,-0.20129852008866114,0.9795299412524943,0.7818314824680298,0.6234898018587336
-0.0031798466797617123,-0.003091003606358708,NaN,-0.012500162764231494,0.8710987376827815,0.18333333333333332,0.1953409039903048,-2.4492935982947064e-16,1.0,0.20129852008866006,0.9795299412524945,0.9749279121818236,-0.22252093395631434
-0.003189600367619951,-0.006211198915299319,NaN,0.0,-0.5892475855417939,0.18333333333333332,0.19538578930831726,-2.4492935982947064e-16,1.0,0.39435585511331855,0.9189578116202306,0.43388373911755823,-0.900968867902419
0.012698580876553777,0.00311023227373683,NaN,0.012500162764231468,0.14660347419187544,0.18333333333333332,0.19543067462632974,-2.4492935982947064e-16,1.0,0.5712682150947923,0.8207634412072763,-0.433883739117558,-0.9009688679024191
0.009419029376585049,0.00619197024792098,NaN,0.0,1.4584388267691868,0.18333333333333332,0.1954755599443422,-2.4492935982947064e-16,1.0,0.72479278722912,0.6889669190756866,-0.9749279121818236,-0.2225209339563146
-0.012578782206860073,0.0,NaN,-0.00936025142680381,-1.5129270120532567,0.18333333333333332,0.19561021589837965,-2.4492935982947064e-16,1.0,0.9884683243281114,0.1514277775045767,0.7818314824680298,0.6234898018587336
-0.003169380998897074,-0.0155522216747249,NaN,-0.009449080530692395,-0.6851790109107684,0.18333333333333332,0.19565510121639212,-2.4492935982947064e-16,1.0,0.9987165071710528,-0.05064916883871264,0.9749279121818236,-0.22252093395631434
0.0,0.0,NaN,0.006309169193264756,0.5436154465889816,0.18333333333333332,0.1956999865344046,-2.4492935982947064e-16,1.0,0.9680771188662043,-0.2506525322587204,0.43388373911755823,-0.900968867902419
0.0,0.0031297016761676626,NaN,0.003139911337427581,0.14953173397096384,0.18333333333333332,0.1957448718524171,-2.4492935982947064e-16,1.0,0.8978045395707416,-0.4403941515576344,-0.433883739117558,-0.9009688679024191
0.009478550192161674,0.006230549750636163,NaN,0.009360251426803872,-0.35894509247327155,0.18333333333333332,0.19578975717042957,-2.4492935982947064e-16,1.0,0.7907757369376989,-0.6121059825476626,-0.9749279121818236,-0.2225209339563146
-0.019048194970694474,-0.00936025142680381,NaN,-0.025158559636154987,1.1173745651236326,0.18333333333333332,0.195924413124467,-2.4492935982947064e-16,1.0,0.29936312297335804,-0.9541392564000488,0.7818314824680298,0.6234898018587336
-0.019418085857101627,-0.015798308209351165,NaN,-0.003189600367619951,-1.181913086261204,0.18333333333333332,0.19596929844247948,-2.4492935982947064e-16,1.0,0.10116832198743272,-0.994869323391895,0.9749279121818236,-0.22252093395631434
0.019418085857101516,0.0,NaN,0.0,-0.8432655968592652,0.18333333333333332,0.19601418376049196,-2.4492935982947064e-16,1.0,-0.10116832198743204,-0.9948693233918952,0.43388373911755823,-0.900968867902419
0.0,0.0,NaN,-0.0032001977311510474,1.1622701404400873,0.18333333333333332,0.19605906907850443,-2.4492935982947064e-16,1.0,-0.29936312297335776,-0.9541392564000489,-0.433883739117558,-0.9009688679024191
-0.0064308903302904025,-0.003189600367619951,NaN,-0.0064308903302904025,-0.5497526942802511,0.18333333333333332,0.1961039543965169,-2.4492935982947064e-16,1.0,-0.4853019625310808,-0.8743466161445822,-0.9749279121818236,-0.2225209339563146
-0.019544596072970283,-0.0032001977311510474,NaN,-0.019544596072970283,1.1626735967209862,0.18333333333333332,0.19623861035055434,-2.4492935982947064e-16,1.0,-0.8978045395707417,-0.44039415155763423,0.7818314824680298,0.6234898018587336
-0.006600684031352024,-0.019418085857101627,NaN,0.0,-1.027235625825882,0.18333333333333332,0.19628349566856682,-2.4492935982947064e-16,1.0,-0.9680771188662041,-0.2506525322587213,0.9749279121818236,-0.22252093395631434
-0.0033165498514089696,-0.0032731252297227764,NaN,0.0,0.4824261492442928,0.18333333333333332,0.19632838098657932,-2.4492935982947064e-16,1.0,-0.9987165071710528,-0.05064916883871355,0.43388373911755823,-0.900968867902419
0.006622539422047434,0.0,NaN,0.003284275316436331,0.29076373898918906,0.18333333333333332,0.1963732663045918,-2.4492935982947064e-16,1.0,-0.9884683243281114,0.15142777750457667,-0.433883739117558,-0.9009688679024191
-0.023373552621447687,-0.0032842753164362987,NaN,-0.02995252239859764,0.6682237721074885,0.18333333333333332,0.1965528075766417,-2.4492935982947064e-16,1.0,-0.5712682150947924,0.8207634412072763,0.7818314824680298,0.6234898018587336
0.0,-0.019934214900817253,NaN,0.0,-1.4086238375179794,0.18333333333333332,0.19659769289465417,-2.4492935982947064e-16,1.0,-0.3943558551133187,0.9189578116202306,0.9749279121818236,-0.22252093395631434
0.0,0.0033502910162183943,NaN,0.0067340321813441194,-0.23940407218599005,0.18333333333333332,0.19664257821266665,-2.4492935982947064e-16,1.0,-0.20129852008866114,0.9795299412524943,0.43388373911755823,-0.900968867902419
-0.041385216162854364,0.016583923884598836,NaN,0.013333530869465168,1.0903817895315941,0.18333333333333332,0.19668746353067912,-2.4492935982947064e-16,1.0,-2.4492935982947064e-16,1.0,-0.433883739117558,-0.9009688679024191
0.05146953936041694,-0.003294694460713644,NaN,0.003305989570638397,0.22589458468609955,0.2,0.19686700480272903,0.49999999999999994,0.8660254037844387,0.72479278722912,0.6889669190756866,0.7818314824680298,0.6234898018587336
-0.016864010182941397,-0.0033059895706384125,NaN,-0.016639520440103608,-0.9612421197364215,0.2,0.1969118901207415,0.49999999999999994,0.8660254037844387,0.8486442574947509,0.5289640103269624,0.9749279121818236,-0.22252093395631434
-0.003406950010522559,-0.013333530869465144,NaN,0.0,0.18805223150293962,0.2,0.196956775438754,0.49999999999999994,0.8660254037844387,0.9377521321470804,0.3473052528448203,0.43388373911755823,-0.900968867902419
-0.003419015059877358,0.0033502910162183943,NaN,-0.01351371916672282,0.1941560144409574,0.2,0.19700166075676648,0.49999999999999994,0.8660254037844387,0.9884683243281114,0.1514277775045767,-0.433883739117558,-0.9009688679024191
-0.01032690296155965,-0.01008432319756256,NaN,-0.013698844358161915,-0.5784189148985188,0.2,0.19704654607477895,0.49999999999999994,0.8660254037844387,0.9987165071710528,-0.05064916883871264,-0.9749279121818236,-0.2225209339563146
-0.03163729613747256,-0.020478531343540676,NaN,-0.03509131981127006,3.1580413908329312,0.2,0.1971812020288164,0.49999999999999994,0.8660254037844387,0.7907757369376989,-0.6121059825476626,0.7818314824680298,0.6234898018587336
-0.014388737452099556,-0.02443380966537519,NaN,0.007117467768863955,-2.7092399692377986,0.2,0.19722608734682887,0.49999999999999994,0.8660254037844387,0.6513724827222223,-0.758758122692791,0.9749279121818236,-0.22252093395631434
0.007220247973487097,0.0035271248460614587,NaN,-0.0071174677688639896,0.34725572202224075,0.2,0.19727097266484134,0.49999999999999994,0.8660254037844387,0.48530196253108104,-0.8743466161445821,0.43388373911755823,-0.900968867902419
-0.00722024797348702,-0.017762237575863427,NaN,-0.0035776025839070026,-1.0493715725649466,0.2,0.1973158579828538,0.49999999999999994,0.8660254037844387,0.29936312297335804,-0.9541392564000488,-0.433883739117558,-0.9009688679024191
-0.007272759329079809,0.003577602583907092,NaN,-0.010811134868192605,0.4944764857644612,0.2,0.1973607433008663,0.49999999999999994,0.8660254037844387,0.10116832198743272,-0.994869323391895,-0.9749279121818236,-0.2225209339563146
-0.06795066190850778,-0.02531758441231398,NaN,-0.04445176257083381,3.5605152224420067,0.2,0.19749539925490373,0.49999999999999994,0.8660254037844387,-0.4853019625310808,-0.8743466161445822,0.7818314824680298,0.6234898018587336
0.019343196694276962,-0.022223131760621465,NaN,-0.003794838895741079,-3.4915223509550555,0.2,0.19754028457291622,0.49999999999999994,0.8660254037844387,-0.6513724827222217,-0.7587581226927913,0.9749279121818236,-0.22252093395631434
-0.007692343817355488,-0.011299783849998017,NaN,-0.0038097604894781886,0.4571002244098276,0.2,0.1975851698909287,0.49999999999999994,0.8660254037844387,-0.7907757369376986,-0.6121059825476627,0.43388373911755823,-0.900968867902419
0.0,-0.007604599385219304,NaN,0.0,-0.4267948749144987,0.2,0.19763005520894117,0.49999999999999994,0.8660254037844387,-0.8978045395707417,-0.44039415155763423,-0.433883739117558,-0.9009688679024191
-0.011650852876921391,-0.007662872745569137,NaN,-0.007662872745569137,1.5393783741793465,0.2,0.19767494052695364,0.49999999999999994,0.8660254037844387,-0.9680771188662041,-0.2506525322587213,-0.9749279121818236,-0.2225209339563146
0.0,0.0,NaN,-0.007722046093910278,-1.313254194726999,0.2,0.19780959648099108,0.49999999999999994,0.8660254037844387,-0.9377521321470804,0.3473052528448203,0.7818314824680298,0.6234898018587336
-0.015748356968139168,-0.007722046093910278,NaN,-0.007782140442054963,1.4049681224171349,0.2,0.19785448179900356,0.49999999999999994,0.8660254037844387,-0.8486442574947509,0.5289640103269624,0.9749279121818236,-0.22252093395631434
0.01183469700052807,-0.0038832625355454766,NaN,0.0038988779065094723,-1.5591188022443931,0.2,0.19789936711701603,0.49999999999999994,0.8660254037844387,-0.7247927872291207,0.6889669190756859,0.43388373911755823,-0.900968867902419
0.0,0.01544431878776745,NaN,0.01544431878776745,0.3548213752894094,0.2,0.19794425243502853,0.49999999999999994,0.8660254037844387,-0.5712682150947924,0.8207634412072763,-0.433883739117558,-0.9009688679024191
0.03468531863436466,0.026466339337017294,NaN,0.022728245822474808,0.876550403224641,0.2,0.197989137753041,0.49999999999999994,0.8660254037844387,-0.3943558551133187,0.9189578116202306,-0.9749279121818236,-0.2225209339563146
-0.01526747213078842,-0.007490671729157626,NaN,-0.01890438323521739,-1.582769665351939,0.2,0.19812379370707842,0.8660254037844386,0.5000000000000001,0.20129852008866006,0.9795299412524945,0.7818314824680298,0.6234898018587336
-0.011605308629455744,-0.007547205635382966,NaN,0.0076045993852192125,0.15226921172755276,0.2,0.19816867902509092,0.8660254037844386,0.5000000000000001,0.39435585511331855,0.9189578116202306,0.9749279121818236,-0.22252093395631434
0.01544431878776745,0.0037809531612237536,NaN,0.0037809531612237536,0.6138104383234242,0.2,0.1982135643431034,0.8660254037844386,0.5000000000000001,0.5712682150947923,0.8207634412072763,0.43388373911755823,-0.900968867902419
0.0038238625872574496,0.003766252474159154,NaN,0.003766252474159154,-0.8554862377665616,0.2,0.19825844966111586,0.8660254037844386,0.5000000000000001,0.72479278722912,0.6889669190756866,-0.433883739117558,-0.9009688679024191
0.011385552546443117,0.03327501083087023,NaN,0.03327501083087023,0.46368876838706113,0.2,0.19830333497912833,0.8660254037844386,0.5000000000000001,0.8486442574947509,0.5289640103269624,-0.9749279121818236,-0.2225209339563146
0.003766252474159154,-0.010969253316572081,NaN,-0.0332750108308703,0.7133046379849255,0.2,0.19843799093316578,0.8660254037844386,0.5000000000000001,0.9987165071710528,-0.05064916883871264,0.7818314824680298,0.6234898018587336
-0.03053672386008165,-0.03745756253490044,NaN,-0.018975667607859667,-1.267280253044087,0.2,0.19848287625117825,0.8660254037844386,0.5000000000000001,0.9680771188662043,-0.2506525322587204,0.9749279121818236,-0.22252093395631434
0.0,-0.0038238625872573837,NaN,0.0,1.0773913331852243,0.2,0.19852776156919072,0.8660254037844386,0.5000000000000001,0.8978045395707416,-0.4403941515576344,0.43388373911755823,-0.900968867902419
-0.04357100118777497,0.0,NaN,-0.043059723311593016,-0.2177959449876145,0.2,0.19857264688720322,0.8660254037844386,0.5000000000000001,0.7907757369376989,-0.6121059825476626,-0.433883739117558,-0.9009688679024191
0.004040162431139765,-0.031130911200671418,NaN,0.011928812110921639,-0.456758402495715,0.2,0.1986175322052157,0.8660254037844386,0.5000000000000001,0.6513724827222223,-0.758758122692791,-0.9749279121818236,-0.2225209339563146
0.0,0.003944537045368492,NaN,0.003944537045368492,0.5212969236332861,0.2,0.1987970734772656,0.8660254037844386,0.5000000000000001,-0.10116832198743204,-0.9948693233918952,0.9749279121818236,-0.22252093395631434
0.012024436134725426,0.007843177461025879,NaN,-0.00394453704536857,-0.7847143740854358,0.2,0.19884195879527808,0.8660254037844386,0.5000000000000001,-0.29936312297335776,-0.9541392564000489,0.43388373911755823,-0.900968867902419
-0.012024436134725352,-0.011787714506394462,NaN,0.0,0.44134339577306625,0.2,0.19888684411329055,0.8660254037844386,0.5000000000000001,-0.4853019625310808,-0.8743466161445822,-0.433883739117558,-0.9009688679024191
0.004024395420804936,0.003944537045368492,NaN,-0.003960642461744679,-0.6374582746993567,0.2,0.19893172943130302,0.8660254037844386,0.5000000000000001,-0.6513724827222217,-0.7587581226927913,-0.9749279121818236,-0.2225209339563146
-0.0040243954208048875,0.019494030337947298,NaN,-0.011975945925636257,1.9363406980391626,0.2,0.19906638538534047,0.8660254037844386,0.5000000000000001,-0.9680771188662041,-0.2506525322587213,0.7818314824680298,0.6234898018587336
0.004024395420804936,-0.02739920984506057,NaN,0.008000040713920391,-1.987633992426713,0.2,0.19911127070335294,0.8660254037844386,0.5000000000000001,-0.9987165071710528,-0.05064916883871355,0.9749279121818236,-0.22252093395631434
-0.012121605653424261,-0.003975905211715788,NaN,-0.003992264437461072,2.463479897296677,0.2,0.19915615602136544,0.8660254037844386,0.5000000000000001,-0.9884683243281114,0.15142777750457667,0.43388373911755823,-0.900968867902419
0.016129381929883717,0.007936547673460526,NaN,0.0,-0.8789100514405902,0.2,0.1992010413393779,0.8660254037844386,0.5000000000000001,-0.9377521321470804,0.3473052528448203,-0.433883739117558,-0.9009688679024191
-0.0040077762764593764,-0.003960642461744679,NaN,0.003992264437461128,0.05425652557751416,0.2,0.19924592665739038,0.8660254037844386,0.5000000000000001,-0.8486442574947509,0.5289640103269624,-0.9749279121818236,-0.2225209339563146
-0.0040243954208048875,0.0,NaN,-0.012024436134725352,-0.8066803160669995,0.2,0.19938058261142783,1.0,6.123233995736766e-17,0.20129852008866006,0.9795299412524945,0.7818314824680298,0.6234898018587336
-0.008097210232619362,-0.007968169649176845,NaN,-0.004040162431139764,-0.22123697304362816,0.2,0.1994254679294403,1.0,6.123233995736766e-17,0.39435585511331855,0.9189578116202306,0.9749279121818236,-0.22252093395631434
-0.016393809775676383,-0.012072334128403979,NaN,-0.012220358440640545,0.19806991376209387,0.2,0.19947035324745277,1.0,6.123233995736766e-17,0.5712682150947923,0.8207634412072763,0.43388373911755823,-0.900968867902419
-0.00414053940815373,-0.004057047801479606,NaN,-0.00823049913651548,-0.5547448577008262,0.2,0.19951523856546524,1.0,6.123233995736766e-17,0.72479278722912,0.6889669190756866,-0.433883739117558,-0.9009688679024191
-0.004158263406541364,-0.008163310639160981,NaN,-0.008298802814695066,0.12155520157780686,0.2,0.19956012388347774,1.0,6.123233995736766e-17,0.8486442574947509,0.5289640103269624,-0.9749279121818236,-0.2225209339563146
-0.01680711831638129,-0.012371038544669137,NaN,-0.01680711831638129,0.7459453661269161,0.2,0.19969477983751516,1.0,6.123233995736766e-17,0.9987165071710528,-0.05064916883871264,0.7818314824680298,0.6234898018587336
-0.017094433359300068,-0.01673678808112976,NaN,-0.00851068966790862,1.236301691441296,0.2,0.19973966515552763,1.0,6.123233995736766e-17,0.9680771188662043,-0.2506525322587204,0.9749279121818236,-0.22252093395631434
0.0043013438528166,0.004210275004071896,NaN,0.016949558313773205,-1.0780776862264019,0.2,0.19978455047354013,1.0,6.123233995736766e-17,0.8978045395707416,-0.4403941515576344,0.43388373911755823,-0.900968867902419
0.012793089506483547,0.04115807249350755,NaN,0.04115807249350755,0.0819171224678868,0.2,0.1998294357915526,1.0,6.123233995736766e-17,0.7907757369376989,-0.6121059825476626,-0.433883739117558,-0.9009688679024191
0.03333642026759171,0.012024436134725426,NaN,0.012024436134725426,-0.7509667514487716,0.2,0.19987432110956507,1.0,6.123233995736766e-17,0.6513724827222223,-0.758758122692791,-0.9749279121818236,-0.2225209339563146
0.020284916292585123,0.019724262179855033,NaN,0.015810602212243955,-0.6466271649250525,0.2,0.20000897706360252,1.0,6.123233995736766e-17,0.10116832198743272,-0.994869323391895,0.7818314824680298,0.6234898018587336
0.01593658838738101,0.0038988779065094723,NaN,0.007812537874120494,1.7356700025770115,0.2,0.200053862381615,1.0,6.123233995736766e-17,-0.10116832198743204,-0.9948693233918952,0.9749279121818236,-0.22252093395631434
-0.003960642461744679,0.007751974970411953,NaN,-0.0038988779065095205,-0.04758896282379785,0.2,0.20009874769962746,1.0,6.123233995736766e-17,-0.29936312297335776,-0.9541392564000489,0.43388373911755823,-0.900968867902419
-0.01600034134644119,-0.011650852876921391,NaN,-0.015748356968139168,-0.4353180712578455,0.2,0.20014363301763993,1.0,6.123233995736766e-17,-0.4853019625310808,-0.8743466161445822,-0.433883739117558,-0.9009688679024191
0.0,-0.015748356968139168,NaN,0.0,0.27723811329069764,0.2,0.20018851833565243,1.0,6.123233995736766e-17,-0.6513724827222217,-0.7587581226927913,-0.9749279121818236,-0.2225209339563146
0.0,0.0,NaN,-0.003975905211715788,-0.8645054325566305,0.2,0.20032317428968985,1.0,6.123233995736766e-17,-0.9680771188662041,-0.2506525322587213,0.7818314824680298,0.6234898018587336
0.012024436134725426,0.023530497410194036,NaN,0.015810602212243955,1.1649016127040337,0.2,0.20036805960770232,1.0,6.123233995736766e-17,-0.9987165071710528,-0.05064916883871355,0.9749279121818236,-0.22252093395631434
0.019724262179855033,0.0077220460939103185,NaN,0.011695800409666009,-1.3268709406490897,0.2,0.20041294492571482,1.0,6.123233995736766e-17,-0.9884683243281114,0.15142777750457667,0.43388373911755823,-0.900968867902419
-0.015748356968139168,-0.015504186535965199,NaN,-0.011695800409666016,1.9236870122706031,0.2,0.2004578302437273,1.0,6.123233995736766e-17,-0.9377521321470804,0.3473052528448203,-0.433883739117558,-0.9009688679024191
-0.007968169649176845,-0.003913659967611053,NaN,-0.015810602212243965,-2.0157059109908553,0.2,0.20050271556173976,1.0,6.123233995736766e-17,-0.8486442574947509,0.5289640103269624,-0.9749279121818236,-0.2225209339563146
0.003992264437461128,-0.003929517493414883,NaN,0.01188108471882912,-1.7797832781813394,0.2,0.2006373715157772,1.0,6.123233995736766e-17,-0.3943558551133187,0.9189578116202306,0.7818314824680298,0.6234898018587336
0.007936547673460526,0.011742055367535337,NaN,0.003929517493414827,1.7112206067440427,0.2,0.20068225683378968,1.0,6.123233995736766e-17,-0.20129852008866114,0.9795299412524943,0.9749279121818236,-0.22252093395631434
-0.003960642461744679,-0.011742055367535394,NaN,-0.00787405453878338,-1.2367626271489267,0.2,0.20072714215180215,1.0,6.123233995736766e-17,-2.4492935982947064e-16,1.0,0.43388373911755823,-0.900968867902419
0.0,0.007843177461025879,NaN,0.0117877145063945,1.1561821404895876,0.2,0.20077202746981462,0.8660254037844387,-0.4999999999999998,0.20129852008866006,0.9795299412524945,-0.433883739117558,-0.9009688679024191
0.003960642461744688,0.007782140442054949,NaN,0.0038988779065094723,0.5219523032307478,0.2,0.20081691278782712,0.8660254037844387,-0.4999999999999998,0.39435585511331855,0.9189578116202306,-0.9749279121818236,-0.2225209339563146
0.0117877145063945,0.0077220460939103185,NaN,0.0,-0.033758479924954427,0.2,0.20095156874186454,0.8660254037844387,-0.4999999999999998,0.8486442574947509,0.5289640103269624,0.7818314824680298,0.6234898018587336
